SpectraSuite Data File
++++++++++++++++++++++++++++++++++++
Date: Thu Sep 26 03:50:39 EST 2019
User: sgrac
Dark Spectrum Present: Yes
Reference Spectrum Present: Yes
Number of Sampled Component Spectra: 1
Spectrometers: USB4E01596
Integration Time (usec): 100000 (USB4E01596)
Spectra Averaged: 3 (USB4E01596)
Boxcar Smoothing: 0 (USB4E01596)
Correct for Electrical Dark: No (USB4E01596)
Strobe/Lamp Enabled: Yes (USB4E01596)
Correct for Detector Non-linearity: No (USB4E01596)
Correct for Stray Light: No (USB4E01596)
Number of Pixels in Processed Spectrum: 3648
>>>>>Begin Processed Spectral Data<<<<<
178.44	-2150.000
178.66	-2150.000
178.87	-2150.000
179.09	-312.245
179.30	-83.333
179.52	-754.545
179.74	-516.667
179.95	-1984.615
180.17	293.976
180.38	1657.143
180.60	587.500
180.82	385.542
181.03	430.556
181.25	272.115
181.46	-800.000
181.68	431.667
181.89	1733.333
182.11	-1327.778
182.33	384.466
182.54	362.069
182.76	573.214
182.97	748.148
183.19	197.516
183.40	312.621
183.62	2587.500
183.84	261.957
184.05	2583.333
184.27	322.680
184.48	-455.556
184.70	1742.857
184.91	389.000
185.13	1486.667
185.34	770.270
185.56	2490.000
185.78	289.691
185.99	379.221
186.21	620.000
186.42	1733.333
186.64	1390.476
186.85	350.000
187.07	335.714
187.28	363.158
187.50	1173.913
187.72	1372.222
187.93	687.234
188.15	498.113
188.36	840.625
188.58	7133.333
188.79	645.000
189.01	4725.000
189.22	218.750
189.44	1100.000
189.65	2688.889
189.87	789.189
190.09	870.968
190.30	547.619
190.52	-26300.000
190.73	-24900.000
190.95	1195.833
191.16	288.073
191.38	356.522
191.59	867.647
191.81	400.000
192.02	1040.000
192.24	410.959
192.45	296.842
192.67	612.766
192.88	651.282
193.10	323.256
193.31	306.742
193.53	1382.353
193.74	385.366
193.96	328.750
194.18	1473.684
194.39	292.174
194.61	2490.909
194.82	412.162
195.04	207.619
195.25	248.437
195.47	578.125
195.68	236.709
195.90	1070.000
196.11	289.000
196.33	973.077
196.54	520.635
196.76	939.286
196.97	1113.636
197.19	872.222
197.40	-617.778
197.62	267.273
197.83	257.983
198.05	524.528
198.26	409.859
198.48	2300.000
198.69	0.000
198.91	2866.667
199.12	577.778
199.34	424.638
199.55	310.811
199.77	336.782
199.98	8533.333
200.20	427.273
200.41	342.056
200.63	1095.238
200.84	510.870
201.06	302.586
201.27	1200.000
201.49	1605.000
201.70	-1942.857
201.91	298.936
202.13	441.026
202.34	-297.917
202.56	627.273
202.77	2300.000
202.99	764.706
203.20	491.803
203.42	463.636
203.63	346.154
203.85	210.219
204.06	602.632
204.28	358.333
204.49	844.118
204.71	333.803
204.92	-10000.000
205.14	1053.571
205.35	384.058
205.56	1120.833
205.78	533.898
205.99	439.623
206.21	333.333
206.42	401.136
206.64	890.625
206.85	339.286
207.07	232.000
207.28	205.983
207.50	468.182
207.71	1104.762
207.93	-700.000
208.14	-2327.273
208.35	828.000
208.57	234.444
208.78	560.000
209.00	528.947
209.21	5500.000
209.43	313.462
209.64	634.375
209.86	4300.000
210.07	602.439
210.28	-476.316
210.50	7866.667
210.71	680.000
210.93	191.379
211.14	498.077
211.36	1257.895
211.57	548.214
211.78	1114.286
212.00	995.833
212.21	532.759
212.43	769.048
212.64	340.777
212.86	410.256
213.07	240.351
213.29	1986.667
213.50	305.063
213.71	262.097
213.93	606.818
214.14	288.462
214.36	177.647
214.57	606.383
214.78	281.707
215.00	296.471
215.21	296.296
215.43	781.481
215.64	314.130
215.86	221.583
216.07	964.000
216.28	303.797
216.50	305.660
216.71	296.341
216.93	561.905
217.14	2427.273
217.35	794.286
217.57	424.194
217.78	262.832
218.00	258.511
218.21	244.737
218.42	683.721
218.64	250.495
218.85	276.786
219.07	303.000
219.28	788.571
219.49	684.211
219.71	574.000
219.92	-1840.000
220.14	415.625
220.35	1058.333
220.56	-12050.000
220.78	252.381
220.99	420.000
221.21	328.916
221.42	339.744
221.63	412.766
221.85	0.000
222.06	188.679
222.28	771.429
222.49	357.576
222.70	1850.000
222.92	361.538
223.13	172.222
223.34	275.000
223.56	244.348
223.77	177.070
223.99	168.323
224.20	174.359
224.41	627.660
224.63	138.095
224.84	248.649
225.05	232.824
225.27	170.520
225.48	267.544
225.69	171.978
225.91	219.130
226.12	118.182
226.34	153.529
226.55	127.206
226.76	137.198
226.98	150.847
227.19	135.196
227.40	170.556
227.62	101.119
227.83	101.606
228.04	114.286
228.26	63.683
228.47	82.843
228.69	49.883
228.90	55.902
229.11	49.098
229.33	59.704
229.54	46.948
229.75	44.793
229.97	40.732
230.18	41.564
230.39	39.374
230.61	37.382
230.82	47.543
231.03	30.400
231.25	37.939
231.46	34.869
231.67	48.861
231.89	50.562
232.10	39.441
232.31	42.917
232.53	39.914
232.74	41.426
232.95	53.547
233.17	42.836
233.38	59.857
233.59	52.220
233.81	49.833
234.02	64.562
234.23	53.507
234.45	65.719
234.66	44.034
234.87	56.732
235.09	45.375
235.30	58.783
235.51	41.316
235.73	42.928
235.94	53.173
236.15	56.920
236.36	48.377
236.58	42.447
236.79	51.988
237.00	37.138
237.22	49.790
237.43	51.220
237.64	39.474
237.86	48.167
238.07	56.347
238.28	47.241
238.50	46.351
238.71	37.821
238.92	36.043
239.13	47.590
239.35	60.980
239.56	47.565
239.77	38.352
239.99	44.597
240.20	51.114
240.41	43.691
240.63	34.459
240.84	38.552
241.05	31.045
241.26	32.718
241.48	37.075
241.69	27.361
241.90	22.095
242.12	29.847
242.33	30.187
242.54	20.713
242.75	21.062
242.97	28.725
243.18	15.803
243.39	19.684
243.61	19.844
243.82	26.509
244.03	20.978
244.24	19.227
244.46	20.928
244.67	24.318
244.88	27.976
245.09	21.522
245.31	23.577
245.52	22.510
245.73	23.215
245.95	35.745
246.16	20.546
246.37	22.142
246.58	18.682
246.80	21.168
247.01	25.348
247.22	21.978
247.43	20.152
247.65	23.197
247.86	22.087
248.07	17.108
248.28	21.632
248.50	20.515
248.71	18.474
248.92	20.436
249.13	19.814
249.35	24.415
249.56	20.000
249.77	21.768
249.98	18.032
250.20	22.649
250.41	23.380
250.62	25.151
250.83	21.362
251.05	27.131
251.26	19.215
251.47	25.834
251.68	24.140
251.90	20.440
252.11	23.296
252.32	18.602
252.53	25.736
252.75	20.140
252.96	20.380
253.17	19.819
253.38	17.708
253.59	20.919
253.81	18.470
254.02	19.991
254.23	19.417
254.44	17.430
254.66	17.446
254.87	21.408
255.08	21.954
255.29	25.169
255.50	17.628
255.72	26.854
255.93	23.753
256.14	30.396
256.35	23.828
256.57	27.614
256.78	18.764
256.99	22.238
257.20	30.013
257.41	21.147
257.63	20.338
257.84	20.552
258.05	28.563
258.26	17.867
258.47	22.242
258.69	16.333
258.90	15.652
259.11	18.377
259.32	17.908
259.53	14.952
259.75	15.025
259.96	13.427
260.17	13.584
260.38	15.327
260.59	16.500
260.81	18.197
261.02	15.903
261.23	17.689
261.44	16.575
261.65	17.651
261.87	17.227
262.08	20.879
262.29	19.009
262.50	15.057
262.71	14.673
262.92	18.959
263.14	15.832
263.35	15.696
263.56	15.385
263.77	18.247
263.98	13.355
264.20	22.475
264.41	13.491
264.62	16.196
264.83	14.266
265.04	22.616
265.25	17.662
265.47	17.498
265.68	17.872
265.89	18.784
266.10	15.161
266.31	23.763
266.52	12.581
266.74	17.623
266.95	14.361
267.16	17.214
267.37	15.209
267.58	16.079
267.79	15.904
268.01	16.854
268.22	14.324
268.43	16.921
268.64	16.815
268.85	13.709
269.06	13.615
269.27	17.309
269.49	12.830
269.70	14.276
269.91	13.455
270.12	13.279
270.33	17.773
270.54	15.468
270.75	11.185
270.97	15.869
271.18	10.244
271.39	15.955
271.60	16.021
271.81	14.914
272.02	12.103
272.23	13.348
272.45	13.348
272.66	13.069
272.87	13.754
273.08	12.234
273.29	14.733
273.50	15.113
273.71	14.521
273.92	12.401
274.14	16.568
274.35	13.259
274.56	15.652
274.77	16.776
274.98	15.509
275.19	16.330
275.40	12.367
275.61	13.203
275.83	17.321
276.04	15.480
276.25	18.132
276.46	14.151
276.67	17.116
276.88	15.853
277.09	15.524
277.30	17.442
277.51	12.981
277.73	16.393
277.94	12.964
278.15	13.522
278.36	17.096
278.57	12.385
278.78	12.334
278.99	14.769
279.20	16.142
279.41	17.825
279.62	13.164
279.84	12.970
280.05	10.609
280.26	11.779
280.47	16.164
280.68	12.154
280.89	15.060
281.10	14.963
281.31	13.417
281.52	16.488
281.73	11.985
281.94	11.520
282.16	13.996
282.37	13.840
282.58	11.925
282.79	16.485
283.00	17.045
283.21	11.405
283.42	12.805
283.63	11.688
283.84	13.425
284.05	12.279
284.26	12.773
284.47	14.544
284.68	13.018
284.89	13.291
285.11	12.187
285.32	12.267
285.53	12.661
285.74	15.028
285.95	12.085
286.16	12.672
286.37	11.668
286.58	12.900
286.79	10.814
287.00	12.793
287.21	11.879
287.42	12.073
287.63	12.443
287.84	13.226
288.05	13.420
288.26	11.434
288.48	13.697
288.69	11.816
288.90	11.576
289.11	14.809
289.32	13.368
289.53	11.075
289.74	10.061
289.95	10.400
290.16	11.049
290.37	10.377
290.58	10.082
290.79	9.972
291.00	10.539
291.21	10.527
291.42	9.543
291.63	11.525
291.84	11.704
292.05	11.212
292.26	9.937
292.47	11.992
292.68	9.969
292.89	11.353
293.10	11.534
293.31	13.238
293.52	9.041
293.73	8.827
293.94	12.016
294.15	9.380
294.36	11.586
294.57	13.132
294.79	10.855
295.00	8.902
295.21	12.203
295.42	9.977
295.63	10.750
295.84	10.039
296.05	9.402
296.26	9.940
296.47	10.364
296.68	8.964
296.89	12.846
297.10	11.455
297.31	10.164
297.52	9.579
297.73	10.778
297.94	10.624
298.15	10.047
298.36	10.512
298.57	10.214
298.78	10.521
298.99	8.174
299.20	10.163
299.41	11.395
299.62	10.979
299.83	8.708
300.04	10.511
300.25	11.996
300.46	9.895
300.67	11.228
300.88	10.429
301.09	7.655
301.30	11.260
301.50	8.956
301.71	14.768
301.92	11.624
302.13	9.820
302.34	10.309
302.55	10.710
302.76	9.400
302.97	9.788
303.18	10.281
303.39	10.406
303.60	8.894
303.81	11.896
304.02	7.308
304.23	10.478
304.44	8.918
304.65	9.669
304.86	10.372
305.07	8.906
305.28	10.505
305.49	10.938
305.70	10.545
305.91	8.257
306.12	10.066
306.33	9.923
306.54	8.916
306.75	10.825
306.96	12.101
307.17	9.621
307.38	9.379
307.58	8.070
307.79	10.444
308.00	11.043
308.21	9.649
308.42	10.978
308.63	8.566
308.84	8.909
309.05	9.483
309.26	8.921
309.47	9.138
309.68	10.659
309.89	11.607
310.10	9.198
310.31	9.312
310.52	10.134
310.73	12.104
310.94	9.123
311.14	9.407
311.35	10.341
311.56	10.227
311.77	9.074
311.98	8.464
312.19	8.642
312.40	7.653
312.61	8.961
312.82	9.863
313.03	9.807
313.24	9.370
313.45	11.153
313.66	9.036
313.86	10.428
314.07	8.717
314.28	11.563
314.49	7.663
314.70	10.375
314.91	12.222
315.12	10.763
315.33	10.683
315.54	9.591
315.75	8.750
315.96	8.767
316.16	7.633
316.37	11.066
316.58	9.790
316.79	10.207
317.00	10.338
317.21	9.403
317.42	11.361
317.63	10.036
317.84	7.694
318.05	9.154
318.25	8.896
318.46	8.221
318.67	8.479
318.88	9.764
319.09	10.058
319.30	7.826
319.51	9.767
319.72	11.163
319.93	8.703
320.13	8.627
320.34	9.820
320.55	8.393
320.76	10.753
320.97	10.946
321.18	12.923
321.39	11.587
321.60	9.577
321.80	11.248
322.01	11.275
322.22	9.519
322.43	9.459
322.64	7.972
322.85	10.000
323.06	11.694
323.27	11.619
323.47	9.496
323.68	10.258
323.89	8.940
324.10	10.526
324.31	8.175
324.52	12.046
324.73	9.531
324.93	8.955
325.14	10.224
325.35	10.557
325.56	8.976
325.77	9.530
325.98	8.952
326.19	8.481
326.39	7.597
326.60	9.278
326.81	8.145
327.02	7.161
327.23	8.129
327.44	11.193
327.64	6.949
327.85	8.132
328.06	10.072
328.27	11.910
328.48	10.358
328.69	7.802
328.90	10.054
329.10	7.798
329.31	9.654
329.52	9.693
329.73	10.992
329.94	8.995
330.15	10.914
330.35	9.943
330.56	10.057
330.77	9.511
330.98	9.432
331.19	9.690
331.39	10.459
331.60	9.407
331.81	6.049
332.02	10.732
332.23	9.563
332.44	8.491
332.64	11.177
332.85	9.806
333.06	9.001
333.27	7.324
333.48	9.731
333.68	10.666
333.89	7.390
334.10	8.047
334.31	10.548
334.52	9.483
334.72	8.539
334.93	8.399
335.14	8.652
335.35	8.538
335.56	10.363
335.76	7.672
335.97	11.069
336.18	6.423
336.39	10.646
336.60	9.844
336.80	8.370
337.01	8.398
337.22	9.010
337.43	9.870
337.64	11.751
337.84	9.964
338.05	8.404
338.26	12.154
338.47	10.295
338.68	6.622
338.88	9.748
339.09	7.380
339.30	9.353
339.51	7.913
339.71	10.852
339.92	8.826
340.13	8.725
340.34	7.867
340.55	7.454
340.75	10.258
340.96	7.888
341.17	9.029
341.38	7.601
341.58	8.214
341.79	7.669
342.00	8.295
342.21	9.492
342.41	7.979
342.62	8.749
342.83	10.275
343.04	5.837
343.24	10.110
343.45	8.321
343.66	7.432
343.87	8.541
344.07	8.083
344.28	6.793
344.49	8.616
344.70	9.459
344.90	7.015
345.11	7.962
345.32	6.793
345.53	8.304
345.73	8.051
345.94	8.926
346.15	8.666
346.36	9.402
346.56	10.429
346.77	9.231
346.98	8.582
347.19	9.371
347.39	9.085
347.60	8.011
347.81	8.633
348.02	8.863
348.22	7.039
348.43	8.029
348.64	8.127
348.84	9.350
349.05	9.156
349.26	10.879
349.47	8.800
349.67	7.231
349.88	9.313
350.09	8.291
350.30	11.000
350.50	8.274
350.71	10.585
350.92	8.852
351.12	8.603
351.33	9.176
351.54	8.476
351.74	8.765
351.95	8.356
352.16	9.308
352.37	11.267
352.57	9.648
352.78	10.409
352.99	10.181
353.19	9.385
353.40	9.906
353.61	11.785
353.82	10.642
354.02	9.535
354.23	11.076
354.44	11.320
354.64	10.112
354.85	10.293
355.06	10.152
355.26	9.673
355.47	10.920
355.68	12.325
355.88	12.432
356.09	12.101
356.30	10.408
356.51	12.350
356.71	11.960
356.92	9.649
357.13	12.336
357.33	13.437
357.54	11.363
357.75	10.323
357.95	12.662
358.16	10.450
358.37	14.914
358.57	11.000
358.78	14.914
358.99	11.626
359.19	12.012
359.40	13.816
359.61	11.926
359.81	13.765
360.02	14.956
360.23	11.885
360.43	12.626
360.64	12.925
360.85	12.760
361.05	11.083
361.26	14.075
361.47	13.608
361.67	15.406
361.88	12.072
362.09	14.599
362.29	13.156
362.50	13.374
362.70	12.728
362.91	14.459
363.12	12.946
363.32	14.761
363.53	14.368
363.74	14.981
363.94	13.293
364.15	15.149
364.36	13.999
364.56	13.210
364.77	14.561
364.98	16.513
365.18	13.010
365.39	15.871
365.59	13.439
365.80	14.292
366.01	14.565
366.21	13.623
366.42	12.189
366.63	14.757
366.83	12.685
367.04	11.934
367.24	15.374
367.45	13.647
367.66	11.962
367.86	14.519
368.07	12.807
368.28	13.622
368.48	12.130
368.69	12.283
368.89	13.729
369.10	15.803
369.31	14.101
369.51	14.900
369.72	16.134
369.92	16.663
370.13	13.362
370.34	15.405
370.54	12.363
370.75	16.144
370.95	12.270
371.16	15.214
371.37	13.021
371.57	13.835
371.78	14.943
371.98	15.683
372.19	15.359
372.40	15.878
372.60	15.792
372.81	15.716
373.01	12.588
373.22	14.236
373.43	15.404
373.63	15.573
373.84	15.519
374.04	16.192
374.25	14.565
374.46	16.690
374.66	15.656
374.87	17.054
375.07	13.235
375.28	13.810
375.48	15.655
375.69	17.135
375.90	14.109
376.10	13.696
376.31	14.971
376.51	14.494
376.72	15.564
376.92	14.859
377.13	16.848
377.34	16.106
377.54	15.884
377.75	17.317
377.95	16.418
378.16	17.620
378.36	17.667
378.57	17.820
378.77	16.110
378.98	18.398
379.19	16.998
379.39	16.955
379.60	17.088
379.80	17.130
380.01	17.690
380.21	16.502
380.42	18.359
380.62	17.738
380.83	17.905
381.04	17.402
381.24	18.516
381.45	18.616
381.65	17.258
381.86	18.814
382.06	19.351
382.27	18.235
382.47	16.554
382.68	20.039
382.88	17.546
383.09	18.246
383.29	18.835
383.50	19.779
383.71	18.282
383.91	19.755
384.12	19.140
384.32	19.897
384.53	19.472
384.73	19.941
384.94	19.070
385.14	20.040
385.35	18.681
385.55	20.681
385.76	20.088
385.96	21.525
386.17	20.729
386.37	21.850
386.58	21.080
386.78	22.831
386.99	20.919
387.19	22.388
387.40	21.295
387.60	23.677
387.81	22.511
388.01	23.251
388.22	23.051
388.42	24.733
388.63	24.223
388.83	24.926
389.04	23.273
389.24	23.841
389.45	24.526
389.65	24.885
389.86	24.157
390.06	24.912
390.27	24.518
390.47	25.826
390.68	25.391
390.88	27.035
391.09	26.628
391.29	27.119
391.50	27.244
391.70	27.492
391.91	26.889
392.11	28.435
392.32	28.040
392.52	27.985
392.73	28.608
392.93	29.175
393.14	29.340
393.34	30.111
393.55	30.461
393.75	30.256
393.95	29.531
394.16	30.544
394.36	30.335
394.57	31.358
394.77	30.491
394.98	31.655
395.18	31.346
395.39	31.641
395.59	31.563
395.80	32.260
396.00	32.475
396.21	33.649
396.41	31.785
396.61	33.809
396.82	33.343
397.02	33.827
397.23	33.036
397.43	33.780
397.64	33.052
397.84	34.642
398.05	33.290
398.25	34.406
398.45	34.622
398.66	34.714
398.86	34.770
399.07	35.513
399.27	34.287
399.48	35.990
399.68	35.443
399.89	35.446
400.09	35.650
400.29	36.370
400.50	34.600
400.70	35.603
400.91	35.768
401.11	35.777
401.32	37.025
401.52	36.025
401.72	35.308
401.93	37.035
402.13	36.127
402.34	35.495
402.54	36.477
402.75	37.440
402.95	36.989
403.15	37.302
403.36	35.002
403.56	37.190
403.77	35.660
403.97	36.787
404.17	36.786
404.38	36.295
404.58	37.076
404.79	37.589
404.99	36.948
405.19	36.932
405.40	36.239
405.60	37.347
405.81	36.527
406.01	36.997
406.21	36.879
406.42	37.010
406.62	36.855
406.83	37.221
407.03	37.653
407.23	36.795
407.44	36.932
407.64	37.035
407.85	36.217
408.05	37.291
408.25	36.048
408.46	37.908
408.66	36.662
408.87	36.742
409.07	36.831
409.27	37.370
409.48	36.630
409.68	36.542
409.88	35.872
410.09	36.761
410.29	36.979
410.50	37.198
410.70	35.618
410.90	36.530
411.11	36.601
411.31	36.639
411.51	37.222
411.72	36.680
411.92	35.916
412.12	36.662
412.33	36.943
412.53	35.322
412.74	35.404
412.94	36.130
413.14	36.881
413.35	36.174
413.55	35.979
413.75	36.236
413.96	36.276
414.16	36.207
414.36	36.093
414.57	36.334
414.77	35.556
414.97	36.847
415.18	34.618
415.38	35.897
415.58	35.708
415.79	35.907
415.99	35.195
416.19	35.332
416.40	35.017
416.60	35.344
416.80	35.428
417.01	35.512
417.21	34.627
417.41	34.907
417.62	35.641
417.82	34.925
418.02	34.409
418.23	34.739
418.43	34.745
418.63	34.550
418.84	34.304
419.04	34.953
419.24	34.149
419.45	34.226
419.65	34.894
419.85	34.005
420.06	33.972
420.26	33.898
420.46	34.392
420.67	33.824
420.87	34.096
421.07	33.683
421.28	34.112
421.48	33.556
421.68	34.283
421.88	33.720
422.09	33.421
422.29	33.485
422.49	33.703
422.70	33.829
422.90	33.614
423.10	33.110
423.31	33.825
423.51	33.917
423.71	33.705
423.91	33.175
424.12	33.371
424.32	34.086
424.52	33.268
424.73	33.100
424.93	33.171
425.13	33.291
425.33	32.743
425.54	32.957
425.74	33.332
425.94	33.033
426.15	33.663
426.35	33.460
426.55	33.315
426.75	33.234
426.96	33.438
427.16	34.182
427.36	33.430
427.57	34.175
427.77	33.169
427.97	33.199
428.17	33.320
428.38	32.976
428.58	33.195
428.78	33.650
428.98	33.667
429.19	33.782
429.39	33.257
429.59	33.453
429.79	32.902
430.00	33.526
430.20	33.576
430.40	32.502
430.60	33.143
430.81	33.478
431.01	32.781
431.21	33.214
431.41	32.408
431.62	32.420
431.82	32.682
432.02	32.699
432.22	32.892
432.43	32.793
432.63	32.560
432.83	32.010
433.03	31.902
433.24	32.342
433.44	32.643
433.64	31.961
433.84	32.560
434.05	32.578
434.25	32.421
434.45	32.328
434.65	32.433
434.85	32.474
435.06	32.720
435.26	32.974
435.46	32.994
435.66	32.434
435.87	33.340
436.07	32.846
436.27	32.420
436.47	32.953
436.67	32.662
436.88	32.693
437.08	32.960
437.28	32.816
437.48	32.665
437.69	32.630
437.89	32.867
438.09	32.020
438.29	31.373
438.49	32.502
438.70	33.103
438.90	32.616
439.10	32.120
439.30	32.063
439.50	32.091
439.71	32.231
439.91	33.015
440.11	32.444
440.31	31.645
440.51	32.091
440.72	32.278
440.92	31.916
441.12	32.229
441.32	32.126
441.52	33.005
441.72	32.431
441.93	32.509
442.13	31.945
442.33	32.345
442.53	32.495
442.73	32.924
442.94	32.935
443.14	33.146
443.34	33.477
443.54	32.548
443.74	32.467
443.94	32.794
444.15	32.452
444.35	33.032
444.55	32.338
444.75	32.365
444.95	32.434
445.15	31.684
445.36	31.991
445.56	31.792
445.76	31.854
445.96	31.505
446.16	31.877
446.36	31.564
446.57	31.581
446.77	31.420
446.97	31.949
447.17	31.747
447.37	31.917
447.57	32.140
447.77	32.013
447.98	32.334
448.18	32.280
448.38	32.495
448.58	31.944
448.78	32.500
448.98	32.282
449.18	32.249
449.39	32.586
449.59	32.865
449.79	31.654
449.99	32.395
450.19	32.947
450.39	32.472
450.59	32.248
450.79	32.600
451.00	32.419
451.20	32.920
451.40	32.975
451.60	32.407
451.80	31.971
452.00	32.342
452.20	32.245
452.40	31.486
452.61	31.952
452.81	32.217
453.01	31.859
453.21	32.540
453.41	31.771
453.61	31.421
453.81	31.705
454.01	31.981
454.21	32.410
454.42	32.016
454.62	32.136
454.82	31.635
455.02	31.754
455.22	31.757
455.42	32.458
455.62	32.192
455.82	31.684
456.02	31.584
456.23	31.831
456.43	32.354
456.63	32.187
456.83	31.862
457.03	31.604
457.23	32.641
457.43	32.367
457.63	31.744
457.83	32.513
458.03	31.648
458.23	30.934
458.43	31.120
458.64	31.646
458.84	30.944
459.04	31.171
459.24	31.117
459.44	31.444
459.64	31.059
459.84	30.618
460.04	30.804
460.24	30.901
460.44	31.313
460.64	30.547
460.84	30.808
461.04	30.986
461.24	31.122
461.45	31.003
461.65	31.334
461.85	31.535
462.05	31.130
462.25	31.683
462.45	31.232
462.65	31.994
462.85	31.714
463.05	31.686
463.25	31.885
463.45	31.168
463.65	31.933
463.85	31.149
464.05	30.906
464.25	31.237
464.45	31.448
464.65	31.409
464.85	31.475
465.05	30.943
465.26	31.637
465.46	31.189
465.66	31.208
465.86	31.676
466.06	31.616
466.26	31.147
466.46	30.831
466.66	31.298
466.86	30.850
467.06	31.193
467.26	30.847
467.46	31.212
467.66	31.041
467.86	30.571
468.06	31.358
468.26	31.359
468.46	30.747
468.66	31.147
468.86	30.900
469.06	31.312
469.26	31.080
469.46	31.364
469.66	31.478
469.86	31.558
470.06	31.393
470.26	31.106
470.46	30.675
470.66	31.499
470.86	31.239
471.06	31.225
471.26	30.706
471.46	30.987
471.66	31.225
471.86	30.933
472.06	31.550
472.26	31.744
472.46	31.326
472.66	31.409
472.86	31.773
473.06	31.001
473.26	31.603
473.46	30.988
473.66	31.057
473.86	31.278
474.06	31.666
474.26	31.797
474.46	31.733
474.66	31.764
474.86	31.452
475.06	31.689
475.26	31.431
475.46	31.517
475.66	31.096
475.86	31.768
476.06	30.987
476.26	31.850
476.46	31.896
476.66	31.131
476.86	31.605
477.06	31.547
477.26	31.678
477.46	31.650
477.65	31.576
477.85	31.168
478.05	31.363
478.25	31.005
478.45	31.611
478.65	31.787
478.85	31.317
479.05	31.797
479.25	31.446
479.45	31.270
479.65	31.537
479.85	31.731
480.05	31.588
480.25	31.722
480.45	31.433
480.65	31.587
480.85	31.700
481.05	31.333
481.25	31.450
481.44	31.125
481.64	31.024
481.84	31.588
482.04	31.463
482.24	31.197
482.44	31.294
482.64	31.168
482.84	31.093
483.04	30.929
483.24	30.595
483.44	30.195
483.64	30.015
483.84	30.035
484.04	30.664
484.23	30.683
484.43	31.462
484.63	31.838
484.83	32.142
485.03	33.227
485.23	33.452
485.43	32.983
485.63	32.439
485.83	32.453
486.03	32.112
486.23	32.613
486.42	32.297
486.62	32.045
486.82	31.826
487.02	31.542
487.22	31.379
487.42	31.305
487.62	31.280
487.82	31.190
488.02	30.850
488.22	31.082
488.41	31.345
488.61	31.275
488.81	31.505
489.01	31.891
489.21	32.189
489.41	31.680
489.61	31.791
489.81	31.938
490.01	31.674
490.20	32.196
490.40	31.826
490.60	31.670
490.80	31.204
491.00	31.459
491.20	31.078
491.40	31.303
491.60	30.718
491.79	30.865
491.99	30.880
492.19	31.016
492.39	31.225
492.59	31.089
492.79	31.480
492.99	31.689
493.19	31.797
493.38	31.801
493.58	32.195
493.78	32.438
493.98	32.214
494.18	32.589
494.38	32.061
494.58	32.411
494.77	32.154
494.97	31.956
495.17	32.233
495.37	32.429
495.57	32.130
495.77	32.271
495.96	32.659
496.16	32.427
496.36	32.397
496.56	31.806
496.76	32.041
496.96	32.671
497.15	32.315
497.35	32.194
497.55	32.084
497.75	32.592
497.95	32.227
498.15	32.538
498.34	32.483
498.54	32.666
498.74	33.181
498.94	32.558
499.14	33.687
499.34	33.065
499.53	33.133
499.73	33.228
499.93	33.261
500.13	33.325
500.33	33.460
500.52	33.250
500.72	33.264
500.92	33.557
501.12	33.719
501.32	33.434
501.52	34.118
501.71	34.277
501.91	33.821
502.11	34.085
502.31	33.951
502.51	34.577
502.70	34.189
502.90	34.430
503.10	34.127
503.30	35.090
503.50	34.316
503.69	34.119
503.89	34.374
504.09	34.417
504.29	34.559
504.48	34.510
504.68	34.796
504.88	34.917
505.08	34.821
505.28	35.519
505.47	35.286
505.67	35.168
505.87	35.261
506.07	35.603
506.27	35.912
506.46	35.340
506.66	35.627
506.86	35.323
507.06	35.834
507.25	35.760
507.45	35.326
507.65	36.083
507.85	35.923
508.04	36.185
508.24	36.350
508.44	36.172
508.64	35.888
508.83	36.046
509.03	36.263
509.23	36.202
509.43	36.165
509.63	36.775
509.82	36.461
510.02	36.590
510.22	36.169
510.42	36.422
510.61	36.629
510.81	37.050
511.01	36.885
511.21	37.559
511.40	37.506
511.60	37.437
511.80	37.404
511.99	37.331
512.19	37.181
512.39	37.311
512.59	37.389
512.78	38.247
512.98	37.381
513.18	37.684
513.38	37.853
513.57	38.005
513.77	38.030
513.97	38.721
514.17	39.082
514.36	38.564
514.56	39.123
514.76	39.268
514.95	39.017
515.15	39.292
515.35	39.243
515.55	39.592
515.74	39.144
515.94	39.533
516.14	39.597
516.33	40.441
516.53	39.930
516.73	39.961
516.93	39.581
517.12	39.498
517.32	39.311
517.52	40.008
517.71	39.991
517.91	39.343
518.11	38.520
518.30	38.378
518.50	37.619
518.70	38.399
518.90	38.148
519.09	38.232
519.29	37.855
519.49	38.088
519.68	37.837
519.88	38.191
520.08	37.846
520.27	38.491
520.47	38.390
520.67	38.663
520.86	39.015
521.06	38.896
521.26	39.179
521.45	39.492
521.65	39.318
521.85	39.321
522.04	39.389
522.24	39.411
522.44	39.425
522.63	39.543
522.83	39.198
523.03	39.322
523.22	39.266
523.42	39.102
523.62	39.206
523.81	39.113
524.01	39.478
524.21	39.341
524.40	38.966
524.60	39.353
524.80	39.298
524.99	38.414
525.19	38.338
525.39	38.462
525.58	37.715
525.78	37.717
525.98	37.527
526.17	37.560
526.37	38.107
526.57	37.443
526.76	37.612
526.96	37.102
527.15	36.857
527.35	37.322
527.55	37.499
527.74	37.154
527.94	37.041
528.14	36.797
528.33	36.486
528.53	36.039
528.72	36.378
528.92	36.531
529.12	36.595
529.31	36.733
529.51	36.909
529.71	37.110
529.90	37.155
530.10	37.216
530.29	37.382
530.49	37.718
530.69	37.695
530.88	37.719
531.08	37.634
531.28	37.882
531.47	38.179
531.67	37.782
531.86	37.604
532.06	37.574
532.26	37.481
532.45	37.375
532.65	37.449
532.84	36.466
533.04	37.019
533.24	36.979
533.43	36.604
533.63	36.955
533.82	36.798
534.02	37.140
534.22	36.877
534.41	37.538
534.61	37.231
534.80	37.482
535.00	37.860
535.19	37.965
535.39	37.704
535.59	38.061
535.78	37.980
535.98	37.854
536.17	37.887
536.37	37.464
536.57	37.414
536.76	37.509
536.96	37.973
537.15	37.616
537.35	37.485
537.54	37.836
537.74	37.688
537.93	38.196
538.13	37.899
538.33	38.290
538.52	38.459
538.72	38.325
538.91	38.627
539.11	39.084
539.30	39.203
539.50	38.000
539.70	38.566
539.89	38.268
540.09	38.401
540.28	38.284
540.48	38.398
540.67	37.790
540.87	37.570
541.06	37.644
541.26	37.374
541.45	37.221
541.65	36.989
541.85	37.354
542.04	37.568
542.24	37.780
542.43	37.688
542.63	37.778
542.82	37.767
543.02	37.978
543.21	38.347
543.41	37.820
543.60	38.740
543.80	38.559
543.99	38.355
544.19	38.399
544.38	38.801
544.58	38.577
544.77	38.664
544.97	38.695
545.16	38.790
545.36	38.679
545.56	39.539
545.75	38.609
545.95	39.040
546.14	38.922
546.34	38.767
546.53	38.672
546.73	38.309
546.92	38.640
547.12	38.356
547.31	38.728
547.51	39.049
547.70	39.213
547.90	39.169
548.09	39.485
548.29	39.268
548.48	39.369
548.68	40.413
548.87	40.020
549.07	40.106
549.26	39.999
549.46	40.197
549.65	40.281
549.84	40.829
550.04	40.966
550.23	41.251
550.43	40.357
550.62	40.360
550.82	41.202
551.01	40.912
551.21	41.173
551.40	40.833
551.60	41.221
551.79	40.991
551.99	41.219
552.18	41.135
552.38	41.174
552.57	41.414
552.77	41.227
552.96	41.241
553.16	40.490
553.35	41.210
553.54	41.580
553.74	41.202
553.93	41.458
554.13	40.998
554.32	41.227
554.52	41.714
554.71	41.550
554.91	41.924
555.10	42.416
555.29	41.167
555.49	42.421
555.68	42.362
555.88	41.721
556.07	42.262
556.27	42.103
556.46	42.309
556.66	42.395
556.85	42.979
557.04	41.974
557.24	42.524
557.43	42.331
557.63	42.774
557.82	42.921
558.02	43.374
558.21	43.383
558.40	42.413
558.60	42.869
558.79	42.609
558.99	42.601
559.18	42.960
559.38	42.989
559.57	43.962
559.76	43.573
559.96	44.021
560.15	43.859
560.35	43.259
560.54	43.138
560.73	42.757
560.93	43.364
561.12	43.647
561.32	42.920
561.51	43.395
561.70	43.305
561.90	43.434
562.09	44.868
562.29	42.725
562.48	43.473
562.67	43.710
562.87	43.648
563.06	44.045
563.26	43.342
563.45	43.774
563.64	43.472
563.84	44.338
564.03	43.413
564.23	44.493
564.42	44.520
564.61	43.882
564.81	43.695
565.00	44.445
565.20	44.955
565.39	44.041
565.58	44.436
565.78	43.710
565.97	44.051
566.16	43.675
566.36	44.612
566.55	44.039
566.74	44.022
566.94	44.659
567.13	44.124
567.33	44.533
567.52	44.294
567.71	43.977
567.91	44.409
568.10	44.813
568.29	45.154
568.49	44.782
568.68	44.968
568.87	44.676
569.07	45.031
569.26	44.872
569.45	44.753
569.65	44.624
569.84	44.713
570.04	44.935
570.23	45.263
570.42	44.656
570.62	45.029
570.81	45.170
571.00	44.230
571.20	45.099
571.39	45.280
571.58	45.368
571.78	44.995
571.97	45.383
572.16	44.824
572.36	44.981
572.55	45.172
572.74	45.018
572.94	44.314
573.13	45.309
573.32	44.882
573.51	45.359
573.71	45.117
573.90	45.308
574.09	44.717
574.29	45.492
574.48	45.156
574.67	45.802
574.87	45.639
575.06	44.388
575.25	45.463
575.45	45.174
575.64	45.429
575.83	45.361
576.03	45.215
576.22	45.603
576.41	44.632
576.60	45.234
576.80	45.185
576.99	45.391
577.18	45.837
577.38	45.312
577.57	45.433
577.76	45.549
577.95	45.115
578.15	45.793
578.34	45.418
578.53	45.525
578.73	45.599
578.92	45.033
579.11	45.737
579.30	45.224
579.50	45.546
579.69	45.930
579.88	45.074
580.08	45.649
580.27	45.939
580.46	45.544
580.65	44.869
580.85	45.559
581.04	44.623
581.23	46.427
581.42	45.661
581.62	46.121
581.81	44.856
582.00	45.343
582.19	44.374
582.39	45.941
582.58	45.112
582.77	45.563
582.96	45.280
583.16	45.472
583.35	45.620
583.54	45.208
583.73	44.952
583.93	45.497
584.12	45.394
584.31	45.669
584.50	44.453
584.70	45.304
584.89	45.999
585.08	44.795
585.27	44.819
585.47	44.631
585.66	45.192
585.85	44.988
586.04	43.987
586.24	45.361
586.43	44.164
586.62	45.144
586.81	44.346
587.00	45.250
587.20	44.452
587.39	44.759
587.58	45.119
587.77	44.279
587.97	44.221
588.16	44.694
588.35	44.712
588.54	44.882
588.73	43.544
588.93	44.460
589.12	43.876
589.31	44.760
589.50	44.172
589.69	44.397
589.89	44.029
590.08	44.371
590.27	44.201
590.46	44.483
590.65	44.943
590.85	44.445
591.04	44.411
591.23	44.220
591.42	44.977
591.61	43.787
591.81	44.301
592.00	44.102
592.19	45.018
592.38	44.997
592.57	45.067
592.77	45.332
592.96	44.106
593.15	45.294
593.34	44.964
593.53	46.188
593.72	44.050
593.92	45.597
594.11	45.123
594.30	44.672
594.49	44.474
594.68	44.594
594.87	45.066
595.07	44.668
595.26	45.044
595.45	44.895
595.64	44.564
595.83	45.071
596.02	44.775
596.22	44.044
596.41	45.075
596.60	44.955
596.79	45.246
596.98	45.601
597.17	44.632
597.37	45.078
597.56	45.160
597.75	45.050
597.94	45.059
598.13	45.255
598.32	44.707
598.51	45.225
598.71	45.969
598.90	45.828
599.09	46.159
599.28	46.220
599.47	46.051
599.66	46.140
599.85	46.973
600.05	47.114
600.24	46.899
600.43	46.153
600.62	47.164
600.81	45.755
601.00	47.464
601.19	46.640
601.38	46.743
601.58	47.172
601.77	47.227
601.96	46.775
602.15	48.168
602.34	46.392
602.53	46.577
602.72	47.359
602.91	46.043
603.10	47.239
603.30	46.621
603.49	46.223
603.68	46.890
603.87	46.377
604.06	46.574
604.25	46.862
604.44	46.501
604.63	46.874
604.82	46.599
605.01	46.824
605.21	46.721
605.40	46.847
605.59	46.570
605.78	46.613
605.97	46.705
606.16	46.880
606.35	46.598
606.54	47.328
606.73	46.225
606.92	48.284
607.11	47.863
607.30	46.993
607.50	48.165
607.69	47.211
607.88	46.714
608.07	46.771
608.26	47.623
608.45	47.572
608.64	46.887
608.83	47.352
609.02	46.652
609.21	46.642
609.40	46.234
609.59	46.522
609.78	46.707
609.97	45.437
610.16	46.009
610.35	46.497
610.55	46.010
610.74	46.151
610.93	46.599
611.12	46.111
611.31	46.819
611.50	46.949
611.69	46.087
611.88	46.360
612.07	47.155
612.26	46.491
612.45	46.679
612.64	46.144
612.83	47.070
613.02	46.699
613.21	46.412
613.40	47.172
613.59	46.900
613.78	46.124
613.97	46.622
614.16	46.038
614.35	46.567
614.54	45.544
614.73	46.917
614.92	46.300
615.11	45.647
615.30	45.174
615.49	45.904
615.68	46.176
615.87	45.638
616.07	45.182
616.26	45.863
616.45	46.181
616.64	46.176
616.83	46.481
617.02	46.003
617.21	44.754
617.40	44.358
617.59	44.791
617.78	44.983
617.97	44.994
618.16	45.395
618.35	45.716
618.54	45.279
618.73	44.338
618.92	45.332
619.11	44.120
619.30	45.326
619.49	44.995
619.68	44.378
619.86	44.731
620.05	44.673
620.24	44.640
620.43	44.660
620.62	44.003
620.81	44.505
621.00	45.242
621.19	45.465
621.38	46.029
621.57	44.605
621.76	44.734
621.95	44.684
622.14	44.627
622.33	44.241
622.52	44.409
622.71	43.787
622.90	43.999
623.09	44.595
623.28	43.137
623.47	45.438
623.66	44.613
623.85	44.033
624.04	43.489
624.23	44.160
624.42	45.465
624.61	44.117
624.80	43.869
624.99	43.507
625.18	43.791
625.36	43.958
625.55	44.680
625.74	43.788
625.93	43.684
626.12	44.047
626.31	44.353
626.50	43.823
626.69	43.919
626.88	44.129
627.07	44.026
627.26	43.965
627.45	44.095
627.64	43.402
627.83	43.344
628.02	43.592
628.20	43.724
628.39	42.835
628.58	43.547
628.77	43.804
628.96	42.651
629.15	42.862
629.34	44.456
629.53	43.007
629.72	44.131
629.91	43.344
630.10	43.741
630.29	43.422
630.47	43.551
630.66	43.252
630.85	43.141
631.04	43.058
631.23	43.918
631.42	43.795
631.61	43.408
631.80	42.741
631.99	43.802
632.18	43.747
632.36	43.573
632.55	43.060
632.74	42.811
632.93	43.197
633.12	42.453
633.31	42.530
633.50	43.380
633.69	42.991
633.88	42.856
634.06	42.879
634.25	42.642
634.44	43.462
634.63	42.990
634.82	42.742
635.01	42.655
635.20	42.704
635.39	43.281
635.57	42.753
635.76	43.386
635.95	42.519
636.14	43.216
636.33	42.835
636.52	43.095
636.71	43.392
636.89	43.437
637.08	42.523
637.27	43.319
637.46	42.879
637.65	43.005
637.84	42.645
638.03	43.240
638.21	42.592
638.40	43.128
638.59	42.982
638.78	43.720
638.97	43.476
639.16	43.585
639.34	43.194
639.53	42.450
639.72	43.606
639.91	44.016
640.10	42.721
640.29	43.816
640.47	42.830
640.66	43.163
640.85	43.297
641.04	43.344
641.23	43.122
641.42	42.926
641.60	42.060
641.79	43.619
641.98	43.604
642.17	43.000
642.36	44.113
642.54	44.071
642.73	42.871
642.92	43.739
643.11	41.996
643.30	43.164
643.49	44.303
643.67	42.717
643.86	44.210
644.05	42.282
644.24	43.154
644.43	43.199
644.61	43.099
644.80	42.403
644.99	42.383
645.18	42.492
645.37	43.433
645.55	43.320
645.74	42.661
645.93	43.156
646.12	42.029
646.31	43.045
646.49	43.532
646.68	42.636
646.87	42.830
647.06	42.723
647.24	43.477
647.43	42.754
647.62	43.705
647.81	42.013
648.00	42.668
648.18	43.425
648.37	43.148
648.56	42.594
648.75	42.554
648.93	43.591
649.12	42.259
649.31	41.773
649.50	42.960
649.68	40.204
649.87	42.470
650.06	42.369
650.25	43.569
650.43	41.990
650.62	42.415
650.81	42.359
651.00	43.341
651.18	43.800
651.37	43.517
651.56	42.167
651.75	43.216
651.93	43.345
652.12	43.097
652.31	42.399
652.50	42.058
652.68	41.948
652.87	43.222
653.06	40.964
653.25	43.359
653.43	43.205
653.62	42.846
653.81	43.161
654.00	41.732
654.18	42.822
654.37	41.740
654.56	40.259
654.74	43.270
654.93	42.072
655.12	41.591
655.31	41.961
655.49	42.226
655.68	40.603
655.87	41.586
656.05	40.934
656.24	41.430
656.43	41.012
656.62	41.039
656.80	41.122
656.99	41.007
657.18	40.513
657.36	40.795
657.55	39.898
657.74	39.907
657.93	39.770
658.11	41.164
658.30	40.225
658.49	40.182
658.67	40.445
658.86	39.250
659.05	38.344
659.23	39.342
659.42	38.038
659.61	38.194
659.79	38.306
659.98	38.843
660.17	39.217
660.35	38.583
660.54	37.974
660.73	38.422
660.91	37.715
661.10	38.149
661.29	37.501
661.47	37.494
661.66	37.876
661.85	36.933
662.03	38.078
662.22	37.409
662.41	36.452
662.59	36.525
662.78	35.838
662.97	36.250
663.15	36.853
663.34	36.611
663.53	36.054
663.71	36.220
663.90	35.885
664.09	36.538
664.27	33.290
664.46	34.798
664.65	34.461
664.83	35.315
665.02	35.348
665.21	35.629
665.39	33.386
665.58	34.336
665.77	33.021
665.95	34.489
666.14	33.816
666.32	34.101
666.51	33.638
666.70	33.396
666.88	33.014
667.07	32.772
667.26	32.099
667.44	34.110
667.63	33.459
667.81	32.895
668.00	31.755
668.19	33.173
668.37	33.168
668.56	34.008
668.75	32.309
668.93	34.350
669.12	30.765
669.30	32.886
669.49	32.217
669.68	33.103
669.86	32.687
670.05	32.426
670.23	32.103
670.42	32.847
670.61	33.945
670.79	33.270
670.98	33.807
671.16	34.091
671.35	32.253
671.54	32.533
671.72	32.222
671.91	33.517
672.09	31.113
672.28	33.851
672.46	33.397
672.65	33.145
672.84	32.780
673.02	34.044
673.21	30.882
673.39	32.812
673.58	32.575
673.77	33.251
673.95	33.779
674.14	34.985
674.32	31.914
674.51	34.426
674.69	32.170
674.88	33.321
675.07	31.741
675.25	33.717
675.44	33.647
675.62	34.087
675.81	32.601
675.99	35.213
676.18	33.908
676.36	34.176
676.55	33.248
676.74	34.093
676.92	33.520
677.11	35.183
677.29	34.022
677.48	36.606
677.66	35.075
677.85	35.103
678.03	33.754
678.22	36.663
678.40	34.236
678.59	32.470
678.78	33.313
678.96	36.507
679.15	34.040
679.33	34.865
679.52	34.942
679.70	35.962
679.89	36.707
680.07	34.906
680.26	33.419
680.44	36.431
680.63	34.446
680.81	35.360
681.00	34.154
681.18	35.023
681.37	35.048
681.55	36.446
681.74	35.551
681.92	35.339
682.11	36.065
682.29	36.861
682.48	36.400
682.66	37.221
682.85	37.417
683.03	37.393
683.22	37.540
683.40	38.111
683.59	36.920
683.77	38.366
683.96	36.127
684.14	38.279
684.33	37.904
684.51	39.345
684.70	37.929
684.88	38.839
685.07	40.324
685.25	41.092
685.44	39.653
685.62	40.963
685.81	38.499
685.99	41.569
686.18	38.912
686.36	41.362
686.55	40.349
686.73	41.087
686.92	41.413
687.10	40.472
687.29	42.730
687.47	41.330
687.65	41.189
687.84	42.591
688.02	42.288
688.21	44.193
688.39	41.680
688.58	43.798
688.76	42.139
688.95	44.947
689.13	42.747
689.32	45.829
689.50	46.627
689.68	46.041
689.87	46.056
690.05	46.124
690.24	46.606
690.42	47.807
690.61	45.911
690.79	47.759
690.98	47.037
691.16	49.373
691.34	46.718
691.53	48.458
691.71	49.127
691.90	49.863
692.08	48.418
692.27	51.482
692.45	50.869
692.63	51.905
692.82	50.597
693.00	51.991
693.19	50.612
693.37	51.887
693.56	50.778
693.74	53.282
693.92	52.704
694.11	56.182
694.29	53.706
694.48	54.898
694.66	53.936
694.84	56.393
695.03	53.882
695.21	54.999
695.40	55.662
695.58	57.880
695.76	58.218
695.95	56.657
696.13	56.110
696.32	57.408
696.50	59.343
696.68	58.285
696.87	57.567
697.05	57.360
697.24	58.367
697.42	57.312
697.60	57.560
697.79	57.873
697.97	58.107
698.16	58.350
698.34	57.991
698.52	58.301
698.71	58.864
698.89	59.433
699.07	59.188
699.26	59.419
699.44	59.493
699.63	58.919
699.81	58.925
699.99	59.524
700.18	58.462
700.36	58.741
700.54	60.061
700.73	59.751
700.91	61.087
701.09	60.437
701.28	60.835
701.46	61.511
701.64	61.837
701.83	62.451
702.01	62.191
702.20	61.021
702.38	63.926
702.56	64.130
702.75	62.099
702.93	64.034
703.11	62.535
703.30	65.631
703.48	65.735
703.66	66.572
703.85	65.247
704.03	66.555
704.21	63.563
704.40	65.026
704.58	63.232
704.76	65.701
704.95	64.600
705.13	65.042
705.31	67.818
705.50	66.958
705.68	65.399
705.86	65.100
706.04	64.404
706.23	68.671
706.41	65.129
706.59	65.332
706.78	66.625
706.96	66.277
707.14	66.180
707.33	66.989
707.51	67.409
707.69	65.881
707.88	66.300
708.06	70.167
708.24	67.218
708.42	66.024
708.61	66.151
708.79	66.667
708.97	68.624
709.16	67.519
709.34	69.823
709.52	66.106
709.71	66.489
709.89	66.851
710.07	65.814
710.25	67.604
710.44	67.034
710.62	67.632
710.80	66.589
710.98	67.972
711.17	64.236
711.35	67.937
711.53	65.800
711.72	68.989
711.90	67.522
712.08	67.099
712.26	67.748
712.45	66.758
712.63	67.702
712.81	67.091
712.99	67.515
713.18	66.342
713.36	66.486
713.54	68.633
713.72	66.455
713.91	67.590
714.09	66.700
714.27	67.426
714.45	70.267
714.64	68.760
714.82	67.205
715.00	68.197
715.18	67.665
715.37	67.667
715.55	66.142
715.73	67.330
715.91	68.859
716.10	66.321
716.28	66.036
716.46	66.620
716.64	64.557
716.83	68.168
717.01	65.477
717.19	68.389
717.37	68.489
717.55	68.413
717.74	69.001
717.92	66.544
718.10	65.726
718.28	69.956
718.47	66.655
718.65	68.543
718.83	70.621
719.01	65.999
719.19	66.489
719.38	66.919
719.56	68.827
719.74	68.099
719.92	65.961
720.10	68.734
720.29	65.996
720.47	69.174
720.65	67.551
720.83	68.163
721.01	66.236
721.20	70.490
721.38	67.084
721.56	67.634
721.74	68.920
721.92	70.044
722.11	68.689
722.29	70.157
722.47	71.564
722.65	70.942
722.83	67.714
723.01	73.023
723.20	68.231
723.38	70.510
723.56	67.867
723.74	66.794
723.92	69.383
724.10	69.772
724.29	68.158
724.47	70.681
724.65	69.580
724.83	69.356
725.01	68.113
725.19	71.158
725.38	67.666
725.56	69.248
725.74	70.034
725.92	71.236
726.10	67.774
726.28	69.855
726.46	66.153
726.65	72.500
726.83	68.723
727.01	73.041
727.19	71.609
727.37	70.645
727.55	69.206
727.73	71.110
727.92	67.698
728.10	69.446
728.28	70.955
728.46	72.606
728.64	67.967
728.82	70.982
729.00	68.333
729.19	68.652
729.37	67.067
729.55	70.275
729.73	69.246
729.91	73.227
730.09	71.320
730.27	68.565
730.45	68.077
730.63	69.105
730.82	69.437
731.00	68.734
731.18	68.268
731.36	69.241
731.54	67.300
731.72	70.663
731.90	70.021
732.08	70.459
732.26	69.498
732.45	71.965
732.63	70.364
732.81	71.295
732.99	70.363
733.17	72.262
733.35	68.512
733.53	68.528
733.71	69.040
733.89	73.854
734.07	69.407
734.25	71.906
734.44	69.765
734.62	70.488
734.80	70.888
734.98	72.972
735.16	72.727
735.34	70.155
735.52	71.061
735.70	71.310
735.88	69.934
736.06	72.182
736.24	73.487
736.42	74.146
736.60	74.419
736.78	70.847
736.97	71.911
737.15	75.176
737.33	73.487
737.51	72.318
737.69	74.691
737.87	73.746
738.05	72.105
738.23	74.929
738.41	75.362
738.59	75.811
738.77	73.763
738.95	73.871
739.13	75.662
739.31	71.325
739.49	73.728
739.67	76.788
739.85	73.353
740.03	74.364
740.21	75.037
740.39	77.253
740.57	72.276
740.75	76.518
740.93	74.264
741.11	75.655
741.30	73.220
741.48	72.697
741.66	75.579
741.84	74.932
742.02	72.071
742.20	80.732
742.38	74.414
742.56	74.286
742.74	73.605
742.92	76.803
743.10	72.701
743.28	73.294
743.46	77.129
743.64	72.335
743.82	75.007
744.00	75.538
744.18	74.239
744.36	78.367
744.54	75.645
744.72	77.327
744.90	74.573
745.08	76.343
745.26	74.690
745.44	81.287
745.62	75.995
745.80	76.504
745.98	79.084
746.16	78.754
746.34	71.900
746.52	75.561
746.70	75.204
746.87	77.928
747.05	76.110
747.23	78.144
747.41	74.014
747.59	77.792
747.77	75.837
747.95	75.784
748.13	78.693
748.31	77.020
748.49	71.853
748.67	77.179
748.85	76.804
749.03	80.838
749.21	75.612
749.39	82.287
749.57	72.324
749.75	75.286
749.93	76.463
750.11	80.565
750.29	76.172
750.47	77.375
750.65	74.573
750.83	74.060
751.01	75.675
751.18	74.181
751.36	72.533
751.54	76.486
751.72	74.369
751.90	77.267
752.08	74.699
752.26	75.159
752.44	78.477
752.62	74.220
752.80	74.799
752.98	77.643
753.16	75.462
753.34	75.421
753.52	79.362
753.69	78.063
753.87	74.893
754.05	77.495
754.23	75.185
754.41	76.598
754.59	75.304
754.77	79.908
754.95	75.605
755.13	74.646
755.31	77.081
755.49	77.451
755.66	76.430
755.84	78.857
756.02	76.203
756.20	76.567
756.38	75.808
756.56	71.963
756.74	71.195
756.92	74.298
757.10	76.073
757.28	77.120
757.45	77.087
757.63	73.954
757.81	74.758
757.99	76.718
758.17	75.228
758.35	75.816
758.53	75.761
758.71	75.094
758.88	75.839
759.06	74.661
759.24	71.326
759.42	74.731
759.60	70.089
759.78	71.963
759.96	67.223
760.13	71.095
760.31	66.226
760.49	67.661
760.67	64.612
760.85	66.657
761.03	66.057
761.21	68.351
761.38	63.531
761.56	69.701
761.74	66.964
761.92	69.930
762.10	63.410
762.28	70.216
762.46	65.219
762.63	68.656
762.81	68.113
762.99	64.672
763.17	63.962
763.35	68.692
763.53	69.633
763.70	68.420
763.88	67.316
764.06	65.237
764.24	66.976
764.42	68.838
764.60	65.648
764.77	69.307
764.95	65.545
765.13	67.644
765.31	67.356
765.49	65.675
765.66	66.577
765.84	68.578
766.02	68.964
766.20	68.196
766.38	68.764
766.56	70.036
766.73	69.393
766.91	71.072
767.09	72.870
767.27	71.125
767.45	71.332
767.62	70.244
767.80	70.110
767.98	72.688
768.16	69.851
768.33	77.887
768.51	71.223
768.69	77.034
768.87	73.232
769.05	73.898
769.22	73.847
769.40	79.040
769.58	75.673
769.76	75.564
769.94	70.112
770.11	71.954
770.29	77.334
770.47	79.581
770.65	76.381
770.82	77.624
771.00	75.092
771.18	79.413
771.36	75.909
771.53	78.615
771.71	74.100
771.89	84.382
772.07	74.837
772.25	81.917
772.42	78.255
772.60	76.309
772.78	78.305
772.96	81.172
773.13	76.862
773.31	75.489
773.49	74.862
773.67	79.711
773.84	75.344
774.02	77.585
774.20	73.351
774.37	78.135
774.55	77.874
774.73	76.597
774.91	79.268
775.08	78.206
775.26	79.840
775.44	78.708
775.62	78.555
775.79	80.000
775.97	75.816
776.15	76.240
776.32	77.901
776.50	80.922
776.68	76.077
776.86	81.463
777.03	79.341
777.21	77.298
777.39	79.604
777.56	79.990
777.74	76.563
777.92	77.875
778.10	71.880
778.27	79.291
778.45	78.204
778.63	79.011
778.80	76.069
778.98	80.483
779.16	81.327
779.34	82.505
779.51	77.143
779.69	77.618
779.87	77.244
780.04	82.327
780.22	68.856
780.40	77.050
780.57	73.386
780.75	75.414
780.93	86.802
781.10	78.653
781.28	80.600
781.46	76.581
781.63	74.447
781.81	80.519
781.99	76.628
782.16	79.386
782.34	72.832
782.52	77.831
782.69	76.999
782.87	79.391
783.05	73.160
783.22	79.386
783.40	81.813
783.58	80.452
783.75	74.714
783.93	84.962
784.11	72.783
784.28	73.149
784.46	74.249
784.64	76.949
784.81	72.308
784.99	82.595
785.17	79.746
785.34	72.166
785.52	70.116
785.69	75.812
785.87	73.378
786.05	75.137
786.22	74.374
786.40	79.826
786.58	77.446
786.75	81.588
786.93	72.738
787.11	78.853
787.28	72.283
787.46	78.138
787.63	75.428
787.81	76.896
787.99	74.766
788.16	74.208
788.34	73.878
788.51	78.824
788.69	74.323
788.87	70.994
789.04	66.780
789.22	77.350
789.39	71.158
789.57	71.716
789.75	69.431
789.92	75.862
790.10	72.574
790.27	76.838
790.45	72.966
790.63	74.259
790.80	74.701
790.98	72.891
791.15	70.827
791.33	75.598
791.51	66.927
791.68	76.430
791.86	73.953
792.03	75.393
792.21	70.345
792.39	79.230
792.56	68.452
792.74	79.695
792.91	73.465
793.09	70.560
793.26	68.203
793.44	77.758
793.62	70.618
793.79	79.726
793.97	73.926
794.14	74.797
794.32	74.130
794.49	80.852
794.67	69.802
794.84	75.594
795.02	74.863
795.20	74.601
795.37	70.704
795.55	74.326
795.72	67.673
795.90	76.002
796.07	72.836
796.25	69.440
796.42	64.899
796.60	77.912
796.77	67.064
796.95	78.412
797.13	64.251
797.30	71.098
797.48	72.162
797.65	70.050
797.83	69.745
798.00	72.033
798.18	65.145
798.35	74.033
798.53	70.845
798.70	77.506
798.88	72.874
799.05	65.600
799.23	72.803
799.40	70.938
799.58	67.937
799.75	70.353
799.93	60.679
800.10	74.682
800.28	68.946
800.45	69.948
800.63	62.914
800.80	74.591
800.98	71.438
801.15	69.683
801.33	68.082
801.50	70.779
801.68	67.404
801.85	72.275
802.03	67.159
802.20	68.650
802.38	67.168
802.55	70.544
802.73	72.610
802.90	76.838
803.08	71.937
803.25	69.150
803.43	73.802
803.60	72.513
803.78	70.730
803.95	72.104
804.13	66.450
804.30	75.488
804.48	62.194
804.65	75.963
804.83	68.388
805.00	72.814
805.17	66.601
805.35	69.987
805.52	69.732
805.70	76.788
805.87	75.063
806.05	68.446
806.22	73.280
806.40	69.743
806.57	71.250
806.75	75.597
806.92	71.457
807.09	77.197
807.27	74.515
807.44	77.370
807.62	65.639
807.79	67.150
807.97	70.276
808.14	74.832
808.31	70.152
808.49	71.043
808.66	73.955
808.84	67.338
809.01	66.170
809.19	73.506
809.36	74.310
809.53	69.269
809.71	68.363
809.88	74.102
810.06	74.127
810.23	73.772
810.41	73.314
810.58	85.672
810.75	67.820
810.93	66.225
811.10	74.310
811.28	64.684
811.45	68.330
811.62	64.484
811.80	69.267
811.97	66.176
812.15	79.151
812.32	68.676
812.49	75.606
812.67	67.900
812.84	71.809
813.02	71.345
813.19	64.810
813.36	74.937
813.54	62.075
813.71	69.438
813.89	65.645
814.06	71.181
814.23	63.411
814.41	68.048
814.58	78.232
814.75	70.112
814.93	69.252
815.10	71.610
815.28	59.280
815.45	65.451
815.62	68.703
815.80	61.878
815.97	57.394
816.14	59.793
816.32	67.663
816.49	61.569
816.66	64.190
816.84	69.031
817.01	62.253
817.18	58.920
817.36	61.040
817.53	63.593
817.71	47.854
817.88	65.536
818.05	60.129
818.23	63.856
818.40	58.629
818.57	64.519
818.75	52.235
818.92	61.592
819.09	56.906
819.27	65.683
819.44	59.925
819.61	66.424
819.79	59.532
819.96	67.021
820.13	60.513
820.31	61.594
820.48	68.039
820.65	60.174
820.82	57.661
821.00	64.758
821.17	55.973
821.34	58.787
821.52	59.395
821.69	60.184
821.86	61.448
822.04	63.832
822.21	62.233
822.38	66.059
822.56	65.942
822.73	64.809
822.90	64.156
823.07	63.387
823.25	62.735
823.42	64.424
823.59	63.130
823.77	62.991
823.94	62.513
824.11	63.711
824.29	65.156
824.46	63.571
824.63	64.371
824.80	65.140
824.98	62.626
825.15	62.864
825.32	60.519
825.49	62.863
825.67	61.475
825.84	66.373
826.01	61.509
826.19	63.899
826.36	63.279
826.53	65.154
826.70	60.316
826.88	66.816
827.05	61.802
827.22	65.639
827.39	61.006
827.57	63.632
827.74	64.297
827.91	67.742
828.08	60.680
828.26	65.435
828.43	61.386
828.60	65.694
828.77	62.133
828.95	65.426
829.12	62.368
829.29	61.355
829.46	60.532
829.64	58.929
829.81	59.367
829.98	65.816
830.15	57.183
830.32	61.432
830.50	55.515
830.67	64.127
830.84	59.413
831.01	57.766
831.19	56.290
831.36	57.953
831.53	56.660
831.70	66.915
831.87	59.929
832.05	64.624
832.22	55.439
832.39	59.462
832.56	50.607
832.74	57.583
832.91	57.555
833.08	64.436
833.25	50.816
833.42	61.310
833.60	52.558
833.77	58.664
833.94	57.573
834.11	62.077
834.28	57.605
834.45	59.629
834.63	58.566
834.80	62.952
834.97	62.290
835.14	62.495
835.31	57.614
835.49	62.104
835.66	63.778
835.83	60.767
836.00	57.801
836.17	60.302
836.34	57.255
836.52	60.724
836.69	57.832
836.86	63.133
837.03	60.220
837.20	57.151
837.37	52.453
837.55	53.993
837.72	51.315
837.89	55.177
838.06	61.885
838.23	64.333
838.40	52.016
838.58	54.227
838.75	59.884
838.92	70.363
839.09	73.826
839.26	70.286
839.43	73.779
839.60	73.712
839.78	70.161
839.95	71.411
840.12	57.780
840.29	68.645
840.46	61.660
840.63	66.242
840.80	66.071
840.98	71.402
841.15	71.672
841.32	59.545
841.49	55.315
841.66	57.765
841.83	64.366
842.00	62.981
842.17	55.962
842.34	57.811
842.52	71.921
842.69	60.000
842.86	70.601
843.03	87.416
843.20	64.405
843.37	69.737
843.54	76.290
843.71	64.149
843.88	72.222
844.06	78.472
844.23	77.730
844.40	68.037
844.57	57.335
844.74	70.404
844.91	73.235
845.08	81.488
845.25	81.167
845.42	82.913
845.59	78.840
845.76	73.960
845.94	95.612
846.11	74.180
846.28	91.322
846.45	90.079
846.62	72.746
846.79	67.951
846.96	83.757
847.13	83.592
847.30	82.585
847.47	84.779
847.64	73.905
847.81	82.230
847.98	81.359
848.15	101.598
848.32	105.678
848.50	81.980
848.67	75.589
848.84	90.054
849.01	75.163
849.18	92.511
849.35	104.701
849.52	96.019
849.69	85.683
849.86	93.578
850.03	87.302
850.20	80.285
850.37	67.327
850.54	90.079
850.71	87.425
850.88	85.743
851.05	93.869
851.22	101.790
851.39	98.765
851.56	80.194
851.73	92.813
851.90	89.522
852.07	85.243
852.24	81.895
852.41	84.992
852.58	94.607
852.75	75.476
852.92	88.009
853.09	111.521
853.26	116.149
853.43	94.382
853.60	97.500
853.77	98.801
853.94	97.653
854.11	92.812
854.28	104.751
854.45	73.963
854.62	94.989
854.79	104.425
854.96	104.326
855.13	82.895
855.30	103.947
855.47	91.620
855.64	93.679
855.81	83.636
855.98	104.474
856.15	102.488
856.32	92.448
856.49	108.635
856.66	104.828
856.83	105.168
857.00	75.682
857.17	91.304
857.34	96.882
857.51	90.370
857.68	98.515
857.85	75.746
858.02	111.290
858.19	86.395
858.36	79.654
858.53	85.194
858.70	103.382
858.87	114.590
859.04	80.720
859.21	95.771
859.38	95.100
859.55	111.461
859.72	88.506
859.89	98.731
860.05	92.111
860.22	103.883
860.39	87.701
860.56	87.312
860.73	98.792
860.90	87.243
861.07	115.103
861.24	88.114
861.41	109.946
861.58	82.456
861.75	97.878
861.92	107.880
862.09	90.508
862.26	105.660
862.43	131.283
862.59	77.165
862.76	99.002
862.93	137.333
863.10	78.571
863.27	93.668
863.44	80.513
863.61	101.857
863.78	84.173
863.95	136.149
864.12	87.500
864.29	102.804
864.45	75.319
864.62	94.457
864.79	105.914
864.96	100.691
865.13	78.913
865.30	91.959
865.47	97.403
865.64	129.483
865.81	110.894
865.97	77.955
866.14	97.541
866.31	104.932
866.48	91.954
866.65	73.966
866.82	101.966
866.99	83.333
867.16	64.048
867.33	98.082
867.49	86.936
867.66	94.456
867.83	84.019
868.00	89.544
868.17	84.106
868.34	107.447
868.51	91.111
868.67	100.000
868.84	85.287
869.01	99.348
869.18	94.901
869.35	95.833
869.52	86.543
869.69	110.366
869.85	111.209
870.02	73.766
870.19	95.854
870.36	93.602
870.53	78.659
870.70	95.012
870.86	70.130
871.03	93.797
871.20	83.824
871.37	101.229
871.54	95.263
871.71	72.861
871.87	89.398
872.04	77.119
872.21	80.833
872.38	112.500
872.55	115.777
872.72	79.481
872.88	99.336
873.05	83.669
873.22	70.361
873.39	81.238
873.56	82.836
873.72	87.123
873.89	91.184
874.06	91.623
874.23	109.687
874.40	83.249
874.56	101.502
874.73	92.841
874.90	83.962
875.07	85.714
875.24	82.420
875.40	87.879
875.57	79.714
875.74	95.172
875.91	73.465
876.08	85.969
876.24	89.474
876.41	87.364
876.58	96.800
876.75	102.216
876.92	87.664
877.08	98.889
877.25	88.940
877.42	79.526
877.59	89.165
877.75	97.796
877.92	77.778
878.09	82.673
878.26	81.980
878.42	75.464
878.59	104.444
878.76	91.707
878.93	92.161
879.09	87.075
879.26	82.342
879.43	87.643
879.60	65.327
879.76	77.679
879.93	61.913
880.10	56.840
880.27	54.382
880.43	58.513
880.60	65.112
880.77	68.421
880.94	60.288
881.10	55.849
881.27	57.096
881.44	42.561
881.61	50.734
881.77	56.047
881.94	49.314
882.11	40.887
882.28	48.488
882.44	49.119
882.61	52.895
882.78	58.792
882.94	58.186
883.11	55.193
883.28	60.206
883.45	54.730
883.61	53.370
883.78	53.366
883.95	57.463
884.11	54.804
884.28	52.649
>>>>>End Processed Spectral Data<<<<<
