SpectraSuite Data File
++++++++++++++++++++++++++++++++++++
Date: Thu Sep 26 03:58:08 EST 2019
User: sgrac
Dark Spectrum Present: Yes
Reference Spectrum Present: Yes
Number of Sampled Component Spectra: 1
Spectrometers: USB4E01596
Integration Time (usec): 100000 (USB4E01596)
Spectra Averaged: 3 (USB4E01596)
Boxcar Smoothing: 0 (USB4E01596)
Correct for Electrical Dark: No (USB4E01596)
Strobe/Lamp Enabled: Yes (USB4E01596)
Correct for Detector Non-linearity: No (USB4E01596)
Correct for Stray Light: No (USB4E01596)
Number of Pixels in Processed Spectrum: 3648
>>>>>Begin Processed Spectral Data<<<<<
178.44	-2287.500
178.66	-2287.500
178.87	-2287.500
179.09	-330.612
179.30	-252.381
179.52	-804.545
179.74	-588.889
179.95	-1653.846
180.17	343.373
180.38	2057.143
180.60	530.357
180.82	422.892
181.03	369.444
181.25	292.308
181.46	-829.032
181.68	451.667
181.89	1906.667
182.11	-1816.667
182.33	316.505
182.54	395.402
182.76	519.643
182.97	829.630
183.19	232.298
183.40	302.913
183.62	2962.500
183.84	334.783
184.05	2400.000
184.27	329.897
184.48	-613.889
184.70	1700.000
184.91	360.000
185.13	1926.667
185.34	767.568
185.56	2690.000
185.78	304.124
185.99	438.961
186.21	808.571
186.42	1593.333
186.64	947.619
186.85	373.469
187.07	427.143
187.28	466.667
187.50	1378.261
187.72	1505.556
187.93	665.957
188.15	633.962
188.36	975.000
188.58	5733.333
188.79	672.500
189.01	6475.000
189.22	300.893
189.44	1108.333
189.65	2266.667
189.87	689.189
190.09	983.871
190.30	490.476
190.52	-23700.000
190.73	-28600.000
190.95	1483.333
191.16	268.807
191.38	265.217
191.59	1100.000
191.81	467.241
192.02	940.000
192.24	423.288
192.45	274.737
192.67	780.851
192.88	702.564
193.10	304.651
193.31	279.775
193.53	1882.353
193.74	375.610
193.96	450.000
194.18	1168.421
194.39	271.304
194.61	2727.273
194.82	429.730
195.04	223.810
195.25	276.562
195.47	850.000
195.68	316.456
195.90	1030.000
196.11	319.000
196.33	1073.077
196.54	614.286
196.76	867.857
196.97	1004.545
197.19	869.444
197.40	-495.556
197.62	480.000
197.83	236.975
198.05	594.340
198.26	445.070
198.48	2375.000
198.69	0.000
198.91	1766.667
199.12	505.556
199.34	397.101
199.55	302.703
199.77	339.080
199.98	8500.000
200.20	436.364
200.41	300.000
200.63	1138.095
200.84	415.217
201.06	298.276
201.27	1185.714
201.49	1495.000
201.70	-1478.571
201.91	359.574
202.13	617.949
202.34	-466.667
202.56	715.152
202.77	1910.000
202.99	923.529
203.20	486.885
203.42	570.909
203.63	353.846
203.85	216.788
204.06	555.263
204.28	296.429
204.49	838.235
204.71	281.690
204.92	-12000.000
205.14	1028.571
205.35	434.783
205.56	925.000
205.78	476.271
205.99	454.717
206.21	325.000
206.42	300.000
206.64	896.875
206.85	365.476
207.07	232.000
207.28	194.017
207.50	493.939
207.71	957.143
207.93	-638.889
208.14	-2618.182
208.35	996.000
208.57	297.778
208.78	508.000
209.00	723.684
209.21	6400.000
209.43	300.962
209.64	796.875
209.86	5000.000
210.07	563.415
210.28	-563.158
210.50	8100.000
210.71	773.333
210.93	260.345
211.14	540.385
211.36	1142.105
211.57	571.429
211.78	1290.476
212.00	1237.500
212.21	386.207
212.43	745.238
212.64	282.524
212.86	355.128
213.07	226.316
213.29	1960.000
213.50	341.772
213.71	237.097
213.93	572.727
214.14	199.038
214.36	184.118
214.57	472.340
214.78	297.561
215.00	357.647
215.21	269.136
215.43	685.185
215.64	244.565
215.86	243.885
216.07	1120.000
216.28	344.304
216.50	301.887
216.71	380.488
216.93	726.190
217.14	2554.545
217.35	680.000
217.57	329.032
217.78	223.009
218.00	322.340
218.21	200.658
218.42	634.884
218.64	246.535
218.85	246.429
219.07	299.000
219.28	768.571
219.49	589.474
219.71	464.000
219.92	-2040.000
220.14	437.500
220.35	1212.500
220.56	-7850.000
220.78	240.476
220.99	755.000
221.21	334.940
221.42	400.000
221.63	463.830
221.85	0.000
222.06	266.981
222.28	834.286
222.49	428.788
222.70	1692.857
222.92	426.923
223.13	174.306
223.34	272.826
223.56	215.652
223.77	191.083
223.99	188.199
224.20	187.821
224.41	500.000
224.63	187.755
224.84	218.018
225.05	207.634
225.27	167.630
225.48	257.018
225.69	178.022
225.91	177.391
226.12	174.026
226.34	148.235
226.55	166.912
226.76	120.290
226.98	132.627
227.19	132.402
227.40	171.667
227.62	97.761
227.83	127.309
228.04	80.714
228.26	56.777
228.47	68.382
228.69	56.674
228.90	51.225
229.11	48.297
229.33	52.000
229.54	44.331
229.75	34.003
229.97	32.195
230.18	35.978
230.39	36.353
230.61	30.366
230.82	34.295
231.03	28.686
231.25	36.806
231.46	32.005
231.67	46.203
231.89	38.577
232.10	41.818
232.31	46.389
232.53	39.628
232.74	47.029
232.95	57.432
233.17	37.255
233.38	46.057
233.59	56.306
233.81	44.816
234.02	52.953
234.23	47.495
234.45	47.867
234.66	46.723
234.87	44.345
235.09	42.234
235.30	53.565
235.51	42.413
235.73	47.587
235.94	49.057
236.15	46.713
236.36	53.014
236.58	40.030
236.79	50.765
237.00	42.078
237.22	41.259
237.43	38.307
237.64	50.564
237.86	34.667
238.07	52.477
238.28	44.483
238.50	40.676
238.71	40.385
238.92	39.724
239.13	46.386
239.35	40.290
239.56	49.026
239.77	36.790
239.99	32.877
240.20	43.906
240.41	37.449
240.63	35.405
240.84	32.268
241.05	24.498
241.26	33.107
241.48	30.000
241.69	23.654
241.90	19.394
242.12	23.710
242.33	23.271
242.54	11.903
242.75	12.818
242.97	16.487
243.18	9.920
243.39	12.979
243.61	19.432
243.82	12.672
244.03	16.431
244.24	11.590
244.46	15.423
244.67	17.215
244.88	16.903
245.09	12.402
245.31	16.477
245.52	15.429
245.73	16.017
245.95	28.197
246.16	19.791
246.37	14.743
246.58	12.493
246.80	16.204
247.01	16.871
247.22	10.557
247.43	10.920
247.65	11.785
247.86	12.362
248.07	9.674
248.28	9.345
248.50	9.793
248.71	7.950
248.92	5.619
249.13	8.432
249.35	9.086
249.56	8.587
249.77	9.254
249.98	8.605
250.20	11.932
250.41	13.486
250.62	11.810
250.83	15.313
251.05	17.938
251.26	16.600
251.47	15.622
251.68	18.387
251.90	19.421
252.11	17.065
252.32	18.441
252.53	16.747
252.75	14.843
252.96	12.637
253.17	13.379
253.38	13.494
253.59	12.543
253.81	14.820
254.02	14.441
254.23	12.553
254.44	14.032
254.66	16.395
254.87	12.890
255.08	16.379
255.29	18.462
255.50	21.090
255.72	20.590
255.93	20.774
256.14	26.725
256.35	23.071
256.57	23.932
256.78	19.614
256.99	21.019
257.20	20.458
257.41	16.945
257.63	15.834
257.84	17.598
258.05	20.475
258.26	17.300
258.47	16.754
258.69	14.227
258.90	11.703
259.11	12.640
259.32	11.396
259.53	8.725
259.75	9.611
259.96	7.271
260.17	7.010
260.38	7.100
260.59	5.878
260.81	6.986
261.02	7.238
261.23	5.890
261.44	7.219
261.65	5.780
261.87	7.028
262.08	7.869
262.29	8.975
262.50	6.492
262.71	6.809
262.92	7.270
263.14	8.352
263.35	8.867
263.56	11.431
263.77	12.916
263.98	10.572
264.20	14.722
264.41	10.708
264.62	12.375
264.83	10.281
265.04	19.816
265.25	14.697
265.47	11.741
265.68	14.097
265.89	15.154
266.10	9.169
266.31	15.724
266.52	7.401
266.74	9.931
266.95	8.991
267.16	11.679
267.37	10.875
267.58	12.624
267.79	10.725
268.01	9.683
268.22	9.615
268.43	11.291
268.64	8.567
268.85	10.560
269.06	9.200
269.27	11.376
269.49	9.068
269.70	8.898
269.91	8.181
270.12	7.443
270.33	11.695
270.54	10.137
270.75	7.965
270.97	9.535
271.18	8.732
271.39	9.673
271.60	8.993
271.81	11.223
272.02	7.398
272.23	9.984
272.45	5.779
272.66	5.994
272.87	9.373
273.08	6.673
273.29	8.190
273.50	8.324
273.71	7.145
273.92	8.795
274.14	8.909
274.35	6.186
274.56	7.400
274.77	7.321
274.98	9.515
275.19	7.807
275.40	6.429
275.61	7.900
275.83	10.722
276.04	4.882
276.25	10.943
276.46	7.428
276.67	11.371
276.88	9.735
277.09	9.350
277.30	9.839
277.51	6.675
277.73	8.960
277.94	8.204
278.15	10.483
278.36	11.918
278.57	6.744
278.78	8.565
278.99	8.274
279.20	10.730
279.41	10.751
279.62	9.889
279.84	8.226
280.05	7.628
280.26	6.927
280.47	12.013
280.68	7.740
280.89	10.392
281.10	8.925
281.31	7.419
281.52	8.881
281.73	7.240
281.94	7.298
282.16	9.443
282.37	6.565
282.58	6.872
282.79	7.883
283.00	9.646
283.21	6.877
283.42	4.252
283.63	7.095
283.84	7.445
284.05	6.465
284.26	7.222
284.47	8.036
284.68	8.497
284.89	7.957
285.11	7.119
285.32	7.467
285.53	8.962
285.74	6.885
285.95	5.032
286.16	6.483
286.37	7.266
286.58	5.706
286.79	6.441
287.00	5.290
287.21	6.202
287.42	6.108
287.63	5.887
287.84	6.086
288.05	7.711
288.26	7.015
288.48	5.952
288.69	6.854
288.90	6.900
289.11	7.541
289.32	7.157
289.53	6.992
289.74	4.954
289.95	6.759
290.16	5.075
290.37	5.980
290.58	5.143
290.79	5.097
291.00	6.014
291.21	6.472
291.42	6.329
291.63	6.403
291.84	5.694
292.05	5.044
292.26	4.724
292.47	5.909
292.68	5.819
292.89	6.211
293.10	6.621
293.31	8.239
293.52	6.388
293.73	6.036
293.94	6.595
294.15	8.014
294.36	7.293
294.57	7.757
294.79	7.296
295.00	4.727
295.21	7.886
295.42	5.137
295.63	5.544
295.84	6.312
296.05	6.081
296.26	6.223
296.47	5.944
296.68	4.306
296.89	5.531
297.10	6.316
297.31	6.183
297.52	4.693
297.73	5.413
297.94	5.595
298.15	4.378
298.36	4.832
298.57	5.163
298.78	5.009
298.99	4.145
299.20	4.610
299.41	4.875
299.62	4.123
299.83	5.431
300.04	5.047
300.25	4.947
300.46	5.311
300.67	6.893
300.88	7.082
301.09	4.338
301.30	6.460
301.50	6.308
301.71	6.975
301.92	6.680
302.13	5.912
302.34	4.680
302.55	6.876
302.76	6.148
302.97	5.840
303.18	6.475
303.39	7.415
303.60	5.499
303.81	5.342
304.02	4.865
304.23	5.941
304.44	6.370
304.65	7.412
304.86	6.613
305.07	3.907
305.28	7.797
305.49	6.771
305.70	6.516
305.91	5.243
306.12	5.383
306.33	5.014
306.54	4.822
306.75	8.060
306.96	7.422
307.17	5.986
307.38	6.296
307.58	5.604
307.79	7.476
308.00	7.143
308.21	7.337
308.42	5.799
308.63	6.521
308.84	5.810
309.05	6.595
309.26	5.374
309.47	5.701
309.68	6.448
309.89	8.113
310.10	5.558
310.31	5.644
310.52	6.070
310.73	6.531
310.94	5.721
311.14	6.541
311.35	5.179
311.56	6.618
311.77	4.834
311.98	5.415
312.19	4.703
312.40	6.369
312.61	4.915
312.82	4.940
313.03	4.961
313.24	6.184
313.45	6.534
313.66	5.508
313.86	5.803
314.07	4.970
314.28	7.062
314.49	5.762
314.70	5.648
314.91	8.753
315.12	6.248
315.33	7.525
315.54	7.328
315.75	5.673
315.96	8.200
316.16	4.324
316.37	7.092
316.58	4.999
316.79	6.178
317.00	7.494
317.21	6.487
317.42	6.409
317.63	6.171
317.84	5.207
318.05	6.446
318.25	5.889
318.46	5.257
318.67	6.234
318.88	5.841
319.09	6.769
319.30	5.189
319.51	6.188
319.72	7.272
319.93	5.731
320.13	5.509
320.34	8.612
320.55	5.668
320.76	7.375
320.97	7.154
321.18	6.749
321.39	6.366
321.60	7.630
321.80	8.276
322.01	8.162
322.22	7.163
322.43	6.664
322.64	5.138
322.85	7.682
323.06	7.915
323.27	8.083
323.47	6.821
323.68	7.423
323.89	5.168
324.10	8.744
324.31	6.499
324.52	8.616
324.73	5.226
324.93	4.788
325.14	4.237
325.35	6.107
325.56	5.593
325.77	4.644
325.98	5.634
326.19	5.660
326.39	5.275
326.60	5.116
326.81	5.351
327.02	4.234
327.23	4.383
327.44	6.383
327.64	5.684
327.85	6.006
328.06	5.277
328.27	6.633
328.48	6.245
328.69	5.188
328.90	7.094
329.10	6.262
329.31	7.007
329.52	6.239
329.73	6.801
329.94	6.814
330.15	8.021
330.35	7.411
330.56	6.875
330.77	4.955
330.98	8.202
331.19	6.921
331.39	7.768
331.60	5.966
331.81	5.567
332.02	6.743
332.23	7.219
332.44	5.741
332.64	7.907
332.85	5.015
333.06	6.616
333.27	6.546
333.48	5.427
333.68	6.353
333.89	5.772
334.10	5.906
334.31	7.976
334.52	7.545
334.72	6.348
334.93	5.783
335.14	5.297
335.35	5.070
335.56	7.123
335.76	6.866
335.97	6.954
336.18	5.999
336.39	7.054
336.60	6.434
336.80	5.326
337.01	6.661
337.22	6.629
337.43	6.647
337.64	8.171
337.84	6.148
338.05	5.567
338.26	7.692
338.47	7.149
338.68	5.882
338.88	6.707
339.09	5.997
339.30	6.330
339.51	5.146
339.71	7.574
339.92	6.991
340.13	7.002
340.34	6.855
340.55	6.892
340.75	7.427
340.96	6.681
341.17	6.347
341.38	6.110
341.58	5.561
341.79	6.508
342.00	6.015
342.21	7.481
342.41	5.931
342.62	6.012
342.83	7.931
343.04	7.258
343.24	8.377
343.45	6.492
343.66	6.062
343.87	7.439
344.07	6.573
344.28	6.196
344.49	8.432
344.70	7.716
344.90	5.851
345.11	7.606
345.32	5.736
345.53	6.420
345.73	7.310
345.94	6.840
346.15	7.522
346.36	6.897
346.56	8.542
346.77	8.504
346.98	5.063
347.19	7.051
347.39	7.231
347.60	7.766
347.81	7.057
348.02	8.466
348.22	5.747
348.43	7.182
348.64	5.361
348.84	7.643
349.05	6.629
349.26	9.005
349.47	7.565
349.67	6.092
349.88	6.006
350.09	7.336
350.30	8.714
350.50	7.420
350.71	8.062
350.92	7.685
351.12	6.562
351.33	8.741
351.54	8.190
351.74	7.482
351.95	6.283
352.16	6.792
352.37	9.295
352.57	6.984
352.78	6.850
352.99	7.403
353.19	7.515
353.40	7.062
353.61	8.860
353.82	8.800
354.02	7.956
354.23	7.750
354.44	9.582
354.64	6.220
354.85	8.241
355.06	8.010
355.26	5.981
355.47	6.910
355.68	9.616
355.88	8.531
356.09	8.086
356.30	7.557
356.51	8.091
356.71	7.615
356.92	5.809
357.13	8.754
357.33	7.938
357.54	7.503
357.75	5.424
357.95	8.035
358.16	7.277
358.37	8.638
358.57	5.868
358.78	9.914
358.99	6.792
359.19	7.559
359.40	7.702
359.61	6.650
359.81	8.303
360.02	9.318
360.23	7.211
360.43	6.434
360.64	7.159
360.85	7.033
361.05	5.997
361.26	7.759
361.47	7.668
361.67	8.158
361.88	5.295
362.09	7.726
362.29	6.102
362.50	5.502
362.70	5.327
362.91	7.916
363.12	6.051
363.32	6.444
363.53	6.977
363.74	7.565
363.94	6.191
364.15	7.888
364.36	7.494
364.56	5.875
364.77	7.367
364.98	9.439
365.18	7.155
365.39	7.780
365.59	6.224
365.80	6.973
366.01	7.588
366.21	6.617
366.42	5.981
366.63	7.658
366.83	6.694
367.04	5.633
367.24	7.779
367.45	5.785
367.66	5.747
367.86	7.471
368.07	7.638
368.28	6.403
368.48	6.510
368.69	5.402
368.89	7.288
369.10	7.209
369.31	7.850
369.51	6.713
369.72	8.326
369.92	8.955
370.13	5.892
370.34	8.703
370.54	6.865
370.75	7.463
370.95	6.069
371.16	7.970
371.37	6.982
371.57	8.214
371.78	8.003
371.98	6.296
372.19	7.691
372.40	8.760
372.60	7.681
372.81	6.114
373.01	5.410
373.22	6.846
373.43	8.320
373.63	7.722
373.84	7.966
374.04	8.091
374.25	7.906
374.46	8.126
374.66	7.964
374.87	8.605
375.07	5.704
375.28	6.376
375.48	7.110
375.69	8.391
375.90	6.058
376.10	6.589
376.31	6.378
376.51	5.863
376.72	7.083
376.92	6.561
377.13	6.947
377.34	7.995
377.54	7.692
377.75	9.174
377.95	7.178
378.16	8.977
378.36	8.258
378.57	9.306
378.77	8.064
378.98	8.933
379.19	7.256
379.39	7.288
379.60	7.865
379.80	8.269
380.01	8.719
380.21	7.671
380.42	8.752
380.62	8.999
380.83	8.821
381.04	8.145
381.24	8.984
381.45	8.718
381.65	7.887
381.86	9.626
382.06	10.202
382.27	7.208
382.47	7.394
382.68	10.482
382.88	7.435
383.09	7.806
383.29	9.116
383.50	10.458
383.71	8.538
383.91	9.327
384.12	8.817
384.32	9.492
384.53	9.233
384.73	8.450
384.94	8.436
385.14	9.102
385.35	8.500
385.55	9.304
385.76	9.065
385.96	9.975
386.17	9.968
386.37	11.098
386.58	9.997
386.78	12.200
386.99	8.739
387.19	11.322
387.40	9.510
387.60	12.267
387.81	10.554
388.01	11.463
388.22	11.636
388.42	12.214
388.63	12.030
388.83	13.075
389.04	11.101
389.24	11.706
389.45	11.355
389.65	10.751
389.86	10.658
390.06	11.188
390.27	10.848
390.47	12.134
390.68	11.647
390.88	13.301
391.09	12.945
391.29	13.703
391.50	13.204
391.70	13.424
391.91	12.467
392.11	13.301
392.32	13.246
392.52	13.898
392.73	13.113
392.93	13.987
393.14	13.488
393.34	14.116
393.55	14.428
393.75	14.292
393.95	14.009
394.16	15.084
394.36	15.213
394.57	15.973
394.77	14.763
394.98	15.677
395.18	15.329
395.39	15.084
395.59	15.369
395.80	15.986
396.00	14.839
396.21	16.158
396.41	14.897
396.61	15.787
396.82	15.416
397.02	17.236
397.23	16.847
397.43	16.515
397.64	14.468
397.84	17.172
398.05	14.430
398.25	16.250
398.45	15.581
398.66	16.656
398.86	16.403
399.07	17.574
399.27	15.895
399.48	17.974
399.68	16.112
399.89	16.359
400.09	17.501
400.29	16.996
400.50	16.360
400.70	17.054
400.91	16.164
401.11	17.368
401.32	17.270
401.52	15.855
401.72	16.338
401.93	18.903
402.13	16.171
402.34	17.522
402.54	16.840
402.75	18.371
402.95	16.156
403.15	18.328
403.36	15.510
403.56	18.361
403.77	16.160
403.97	17.857
404.17	16.567
404.38	17.207
404.58	16.396
404.79	18.208
404.99	17.563
405.19	17.285
405.40	17.415
405.60	17.369
405.81	17.815
406.01	17.832
406.21	17.424
406.42	18.049
406.62	17.906
406.83	18.098
407.03	17.518
407.23	17.627
407.44	17.016
407.64	17.556
407.85	17.804
408.05	18.571
408.25	16.532
408.46	18.355
408.66	17.213
408.87	17.493
409.07	17.712
409.27	17.375
409.48	17.378
409.68	17.877
409.88	16.097
410.09	17.753
410.29	17.270
410.50	17.743
410.70	16.132
410.90	17.821
411.11	16.742
411.31	17.119
411.51	17.903
411.72	18.582
411.92	16.518
412.12	17.223
412.33	16.985
412.53	16.693
412.74	16.432
412.94	17.585
413.14	17.040
413.35	17.593
413.55	17.340
413.75	17.476
413.96	16.487
414.16	17.241
414.36	16.714
414.57	17.154
414.77	16.555
414.97	17.700
415.18	15.966
415.38	16.228
415.58	16.431
415.79	16.619
415.99	16.346
416.19	17.077
416.40	16.759
416.60	16.867
416.80	16.600
417.01	17.033
417.21	16.777
417.41	17.237
417.62	17.650
417.82	17.151
418.02	15.843
418.23	17.032
418.43	16.571
418.63	16.580
418.84	16.640
419.04	16.733
419.24	16.895
419.45	16.786
419.65	17.022
419.85	16.812
420.06	16.473
420.26	16.583
420.46	16.679
420.67	16.509
420.87	16.284
421.07	17.082
421.28	16.750
421.48	16.557
421.68	16.785
421.88	16.815
422.09	16.577
422.29	16.263
422.49	16.578
422.70	16.601
422.90	16.393
423.10	16.387
423.31	16.167
423.51	16.533
423.71	16.215
423.91	16.424
424.12	15.985
424.32	16.473
424.52	16.296
424.73	16.158
424.93	15.871
425.13	15.606
425.33	15.898
425.54	15.782
425.74	16.344
425.94	16.113
426.15	16.410
426.35	16.487
426.55	16.317
426.75	16.506
426.96	16.380
427.16	16.381
427.36	16.434
427.57	16.488
427.77	16.340
427.97	16.137
428.17	15.816
428.38	16.226
428.58	15.718
428.78	16.712
428.98	15.515
429.19	16.026
429.39	15.657
429.59	15.599
429.79	15.789
430.00	15.737
430.20	15.301
430.40	15.813
430.60	15.359
430.81	16.096
431.01	15.837
431.21	16.074
431.41	15.339
431.62	15.728
431.82	15.290
432.02	16.230
432.22	15.723
432.43	15.945
432.63	15.712
432.83	15.561
433.03	15.408
433.24	16.266
433.44	15.227
433.64	15.906
433.84	15.635
434.05	15.597
434.25	15.832
434.45	16.351
434.65	16.549
434.85	16.392
435.06	16.348
435.26	16.265
435.46	16.448
435.66	16.821
435.87	16.163
436.07	16.160
436.27	16.088
436.47	16.224
436.67	16.292
436.88	16.616
437.08	15.903
437.28	16.271
437.48	15.745
437.69	16.691
437.89	16.279
438.09	16.687
438.29	15.834
438.49	16.793
438.70	16.563
438.90	16.478
439.10	16.170
439.30	16.577
439.50	16.315
439.71	16.434
439.91	16.611
440.11	16.998
440.31	16.137
440.51	15.985
440.72	16.483
440.92	16.274
441.12	16.802
441.32	16.431
441.52	16.703
441.72	16.975
441.93	17.059
442.13	16.588
442.33	16.552
442.53	16.947
442.73	16.343
442.94	17.120
443.14	17.044
443.34	16.469
443.54	17.095
443.74	17.020
443.94	16.499
444.15	16.649
444.35	16.811
444.55	16.683
444.75	16.980
444.95	16.574
445.15	16.852
445.36	17.101
445.56	16.285
445.76	16.869
445.96	16.546
446.16	16.842
446.36	16.527
446.57	16.490
446.77	16.588
446.97	17.001
447.17	16.888
447.37	16.634
447.57	17.273
447.77	16.722
447.98	16.868
448.18	16.851
448.38	17.285
448.58	16.964
448.78	17.268
448.98	17.379
449.18	17.753
449.39	17.296
449.59	17.361
449.79	17.001
449.99	17.143
450.19	17.612
450.39	17.700
450.59	17.311
450.79	16.714
451.00	17.406
451.20	18.246
451.40	17.814
451.60	16.585
451.80	16.650
452.00	17.018
452.20	17.473
452.40	16.877
452.61	17.477
452.81	16.787
453.01	16.567
453.21	16.647
453.41	17.387
453.61	17.146
453.81	17.405
454.01	17.041
454.21	17.182
454.42	17.415
454.62	17.331
454.82	17.048
455.02	17.310
455.22	16.964
455.42	17.549
455.62	16.941
455.82	17.400
456.02	17.115
456.23	17.023
456.43	17.523
456.63	17.397
456.83	17.255
457.03	17.760
457.23	17.149
457.43	17.817
457.63	16.886
457.83	17.798
458.03	16.502
458.23	17.331
458.43	17.072
458.64	17.506
458.84	17.049
459.04	16.703
459.24	17.163
459.44	17.102
459.64	16.317
459.84	16.709
460.04	16.712
460.24	16.909
460.44	16.301
460.64	16.994
460.84	16.778
461.04	16.810
461.24	17.218
461.45	17.016
461.65	16.868
461.85	17.073
462.05	17.217
462.25	17.430
462.45	17.399
462.65	17.828
462.85	16.974
463.05	17.072
463.25	17.218
463.45	17.395
463.65	18.018
463.85	17.310
464.05	16.842
464.25	17.098
464.45	17.434
464.65	17.129
464.85	17.155
465.05	17.236
465.26	17.068
465.46	17.000
465.66	17.191
465.86	17.674
466.06	17.425
466.26	17.277
466.46	17.244
466.66	17.175
466.86	17.153
467.06	17.069
467.26	17.289
467.46	17.657
467.66	17.262
467.86	17.107
468.06	17.418
468.26	17.316
468.46	17.001
468.66	17.604
468.86	17.090
469.06	17.603
469.26	17.213
469.46	17.350
469.66	17.426
469.86	17.447
470.06	17.377
470.26	17.711
470.46	17.368
470.66	18.105
470.86	17.413
471.06	17.417
471.26	17.040
471.46	17.475
471.66	17.077
471.86	17.805
472.06	17.404
472.26	17.946
472.46	17.418
472.66	17.619
472.86	17.493
473.06	17.443
473.26	17.707
473.46	18.028
473.66	17.626
473.86	17.961
474.06	17.557
474.26	18.037
474.46	17.848
474.66	17.696
474.86	18.039
475.06	18.127
475.26	17.870
475.46	17.798
475.66	17.532
475.86	18.160
476.06	17.739
476.26	18.337
476.46	18.228
476.66	18.065
476.86	17.591
477.06	17.938
477.26	17.589
477.46	18.196
477.65	18.067
477.85	17.852
478.05	17.483
478.25	18.095
478.45	17.544
478.65	18.490
478.85	18.093
479.05	18.438
479.25	18.293
479.45	18.331
479.65	17.960
479.85	18.563
480.05	18.152
480.25	18.356
480.45	18.047
480.65	18.570
480.85	18.842
481.05	18.564
481.25	17.696
481.44	18.101
481.64	18.118
481.84	18.339
482.04	18.265
482.24	17.863
482.44	18.103
482.64	17.611
482.84	17.535
483.04	17.965
483.24	17.570
483.44	17.593
483.64	17.273
483.84	17.365
484.04	17.607
484.23	17.640
484.43	18.040
484.63	18.135
484.83	18.216
485.03	19.415
485.23	19.173
485.43	18.996
485.63	18.834
485.83	19.035
486.03	18.756
486.23	19.015
486.42	18.909
486.62	18.893
486.82	18.838
487.02	18.170
487.22	18.323
487.42	18.097
487.62	18.247
487.82	18.069
488.02	18.169
488.22	18.073
488.41	18.174
488.61	18.288
488.81	18.227
489.01	18.440
489.21	18.739
489.41	18.718
489.61	18.514
489.81	18.888
490.01	19.031
490.20	18.689
490.40	18.860
490.60	18.752
490.80	18.710
491.00	18.821
491.20	18.844
491.40	18.299
491.60	18.226
491.79	17.968
491.99	18.195
492.19	18.110
492.39	18.190
492.59	18.286
492.79	18.321
492.99	18.491
493.19	18.303
493.38	18.669
493.58	19.208
493.78	19.125
493.98	19.412
494.18	19.105
494.38	19.089
494.58	19.226
494.77	18.999
494.97	18.971
495.17	18.914
495.37	19.236
495.57	19.216
495.77	19.282
495.96	19.330
496.16	19.368
496.36	19.056
496.56	18.855
496.76	18.981
496.96	18.725
497.15	19.106
497.35	19.619
497.55	19.278
497.75	19.393
497.95	19.179
498.15	19.525
498.34	19.667
498.54	19.079
498.74	20.015
498.94	19.732
499.14	19.817
499.34	19.540
499.53	19.781
499.73	19.817
499.93	19.195
500.13	19.853
500.33	20.144
500.52	19.778
500.72	19.735
500.92	19.922
501.12	19.899
501.32	20.187
501.52	20.192
501.71	19.934
501.91	19.909
502.11	20.606
502.31	20.026
502.51	20.483
502.70	20.297
502.90	20.506
503.10	20.141
503.30	20.513
503.50	20.394
503.69	20.213
503.89	20.592
504.09	20.489
504.29	20.231
504.48	20.956
504.68	20.870
504.88	20.403
505.08	20.215
505.28	21.066
505.47	20.570
505.67	20.334
505.87	20.634
506.07	20.842
506.27	20.775
506.46	20.857
506.66	20.626
506.86	20.559
507.06	21.038
507.25	21.192
507.45	21.191
507.65	20.451
507.85	20.602
508.04	20.671
508.24	21.135
508.44	21.015
508.64	20.835
508.83	20.359
509.03	20.518
509.23	20.726
509.43	20.337
509.63	20.683
509.82	20.580
510.02	20.738
510.22	20.962
510.42	20.760
510.61	21.126
510.81	20.645
511.01	20.958
511.21	20.765
511.40	21.043
511.60	21.286
511.80	20.987
511.99	20.881
512.19	21.076
512.39	20.951
512.59	21.008
512.78	21.007
512.98	21.047
513.18	20.849
513.38	21.152
513.57	21.031
513.77	21.133
513.97	21.436
514.17	21.278
514.36	21.069
514.56	21.144
514.76	21.379
514.95	21.510
515.15	21.626
515.35	21.464
515.55	21.173
515.74	21.431
515.94	21.691
516.14	21.431
516.33	21.464
516.53	21.170
516.73	21.271
516.93	21.346
517.12	21.531
517.32	21.509
517.52	21.945
517.71	21.520
517.91	20.810
518.11	20.970
518.30	21.070
518.50	20.884
518.70	20.711
518.90	20.719
519.09	20.770
519.29	20.755
519.49	20.870
519.68	20.648
519.88	20.615
520.08	20.732
520.27	20.651
520.47	21.320
520.67	21.136
520.86	21.231
521.06	21.522
521.26	21.194
521.45	21.173
521.65	21.236
521.85	21.312
522.04	21.232
522.24	21.425
522.44	21.361
522.63	21.495
522.83	21.411
523.03	21.283
523.22	20.833
523.42	21.478
523.62	21.812
523.81	21.028
524.01	21.561
524.21	21.071
524.40	20.920
524.60	20.832
524.80	21.274
524.99	20.797
525.19	20.713
525.39	20.687
525.58	20.789
525.78	20.500
525.98	20.776
526.17	20.797
526.37	21.037
526.57	20.690
526.76	20.777
526.96	20.572
527.15	20.754
527.35	20.664
527.55	20.658
527.74	20.775
527.94	20.671
528.14	20.414
528.33	20.015
528.53	19.769
528.72	20.111
528.92	20.188
529.12	20.353
529.31	20.354
529.51	20.700
529.71	20.323
529.90	20.813
530.10	20.869
530.29	20.981
530.49	21.115
530.69	21.256
530.88	21.227
531.08	21.251
531.28	21.144
531.47	21.200
531.67	20.936
531.86	21.115
532.06	20.770
532.26	20.654
532.45	20.982
532.65	20.684
532.84	20.381
533.04	20.657
533.24	20.373
533.43	20.112
533.63	20.608
533.82	20.767
534.02	20.675
534.22	20.404
534.41	20.787
534.61	20.654
534.80	20.557
535.00	21.052
535.19	20.914
535.39	21.016
535.59	21.248
535.78	21.075
535.98	21.036
536.17	21.039
536.37	20.924
536.57	20.973
536.76	20.787
536.96	21.017
537.15	20.989
537.35	20.786
537.54	20.918
537.74	20.603
537.93	20.978
538.13	21.496
538.33	21.307
538.52	21.411
538.72	21.168
538.91	21.469
539.11	21.596
539.30	21.731
539.50	21.238
539.70	21.513
539.89	21.388
540.09	21.077
540.28	21.371
540.48	21.275
540.67	21.109
540.87	20.861
541.06	20.719
541.26	20.449
541.45	20.413
541.65	20.348
541.85	20.594
542.04	20.669
542.24	21.218
542.43	20.909
542.63	20.884
542.82	21.222
543.02	20.914
543.21	21.379
543.41	21.301
543.60	21.436
543.80	21.496
543.99	21.707
544.19	21.413
544.38	21.285
544.58	21.484
544.77	21.168
544.97	21.371
545.16	21.629
545.36	21.623
545.56	21.837
545.75	20.961
545.95	21.792
546.14	21.498
546.34	21.452
546.53	21.434
546.73	21.197
546.92	21.107
547.12	21.379
547.31	21.874
547.51	21.482
547.70	21.643
547.90	21.702
548.09	21.969
548.29	21.608
548.48	21.993
548.68	22.128
548.87	22.159
549.07	22.050
549.26	22.134
549.46	22.497
549.65	21.964
549.84	22.348
550.04	22.281
550.23	22.670
550.43	22.691
550.62	22.423
550.82	22.371
551.01	22.317
551.21	22.611
551.40	22.465
551.60	22.674
551.79	22.922
551.99	22.638
552.18	22.691
552.38	23.039
552.57	22.560
552.77	22.203
552.96	22.816
553.16	22.982
553.35	22.757
553.54	22.895
553.74	22.303
553.93	22.710
554.13	22.817
554.32	23.042
554.52	23.241
554.71	22.761
554.91	23.460
555.10	23.100
555.29	22.632
555.49	23.093
555.68	23.229
555.88	23.403
556.07	23.064
556.27	23.609
556.46	23.762
556.66	23.076
556.85	24.013
557.04	23.280
557.24	23.826
557.43	23.371
557.63	23.906
557.82	23.522
558.02	22.934
558.21	24.172
558.40	23.985
558.60	23.475
558.79	24.138
558.99	23.566
559.18	23.396
559.38	24.134
559.57	24.353
559.76	23.800
559.96	23.845
560.15	24.175
560.35	23.876
560.54	24.175
560.73	23.378
560.93	23.695
561.12	24.041
561.32	23.721
561.51	24.071
561.70	24.152
561.90	24.277
562.09	24.521
562.29	24.126
562.48	24.052
562.67	23.947
562.87	24.920
563.06	24.557
563.26	24.462
563.45	24.747
563.64	24.722
563.84	24.748
564.03	25.366
564.23	24.224
564.42	25.265
564.61	24.366
564.81	24.153
565.00	25.236
565.20	25.046
565.39	24.485
565.58	25.091
565.78	24.724
565.97	24.415
566.16	25.019
566.36	24.747
566.55	25.035
566.74	24.674
566.94	24.849
567.13	25.176
567.33	25.291
567.52	25.647
567.71	25.005
567.91	25.237
568.10	25.536
568.29	25.491
568.49	25.197
568.68	25.561
568.87	25.275
569.07	25.437
569.26	25.621
569.45	25.515
569.65	25.549
569.84	25.894
570.04	25.106
570.23	25.782
570.42	25.459
570.62	25.674
570.81	26.174
571.00	25.285
571.20	25.943
571.39	25.261
571.58	25.448
571.78	25.473
571.97	25.855
572.16	25.512
572.36	25.441
572.55	25.802
572.74	26.037
572.94	25.510
573.13	25.820
573.32	25.811
573.51	25.681
573.71	25.774
573.90	26.399
574.09	26.049
574.29	26.080
574.48	26.628
574.67	25.983
574.87	25.846
575.06	25.752
575.25	25.465
575.45	26.405
575.64	26.174
575.83	26.173
576.03	26.533
576.22	26.574
576.41	26.203
576.60	26.472
576.80	26.272
576.99	26.456
577.18	26.208
577.38	27.091
577.57	26.207
577.76	26.384
577.95	26.887
578.15	26.413
578.34	26.487
578.53	26.804
578.73	26.355
578.92	26.787
579.11	26.641
579.30	26.398
579.50	26.374
579.69	26.650
579.88	26.070
580.08	27.170
580.27	26.842
580.46	27.640
580.65	26.753
580.85	27.005
581.04	27.256
581.23	27.102
581.42	26.773
581.62	26.862
581.81	26.487
582.00	26.776
582.19	27.099
582.39	26.446
582.58	27.118
582.77	27.160
582.96	26.286
583.16	26.584
583.35	26.730
583.54	26.967
583.73	26.759
583.93	26.918
584.12	26.762
584.31	26.920
584.50	27.054
584.70	26.770
584.89	26.586
585.08	26.637
585.27	27.264
585.47	27.038
585.66	26.456
585.85	27.123
586.04	26.890
586.24	26.449
586.43	27.249
586.62	26.631
586.81	26.377
587.00	26.978
587.20	26.902
587.39	26.861
587.58	26.071
587.77	27.138
587.97	27.175
588.16	27.232
588.35	26.438
588.54	26.597
588.73	25.901
588.93	26.878
589.12	25.942
589.31	26.990
589.50	26.769
589.69	26.491
589.89	26.551
590.08	26.129
590.27	26.416
590.46	26.866
590.65	26.264
590.85	26.717
591.04	27.275
591.23	27.081
591.42	26.328
591.61	26.563
591.81	26.693
592.00	26.816
592.19	27.500
592.38	27.473
592.57	27.350
592.77	26.963
592.96	27.379
593.15	27.847
593.34	27.342
593.53	27.441
593.72	26.900
593.92	27.116
594.11	27.222
594.30	26.988
594.49	27.159
594.68	26.933
594.87	26.576
595.07	27.268
595.26	27.362
595.45	26.803
595.64	26.779
595.83	26.815
596.02	26.875
596.22	26.632
596.41	26.781
596.60	26.627
596.79	26.990
596.98	27.214
597.17	27.059
597.37	27.187
597.56	26.875
597.75	26.800
597.94	27.720
598.13	26.422
598.32	26.982
598.51	26.654
598.71	27.466
598.90	27.426
599.09	27.761
599.28	27.366
599.47	27.351
599.66	27.483
599.85	28.482
600.05	27.422
600.24	28.017
600.43	27.295
600.62	28.355
600.81	28.064
601.00	28.404
601.19	27.738
601.38	28.259
601.58	28.618
601.77	28.305
601.96	27.604
602.15	28.838
602.34	27.194
602.53	27.511
602.72	27.487
602.91	28.635
603.10	28.561
603.30	28.156
603.49	27.032
603.68	28.041
603.87	27.809
604.06	28.220
604.25	27.823
604.44	27.205
604.63	27.448
604.82	27.477
605.01	27.566
605.21	28.067
605.40	27.643
605.59	27.895
605.78	27.593
605.97	27.471
606.16	27.833
606.35	27.714
606.54	28.400
606.73	28.101
606.92	28.505
607.11	27.923
607.30	28.371
607.50	28.779
607.69	28.442
607.88	27.425
608.07	28.779
608.26	29.356
608.45	28.381
608.64	28.348
608.83	27.602
609.02	28.279
609.21	28.114
609.40	28.179
609.59	27.296
609.78	27.590
609.97	26.929
610.16	27.677
610.35	28.165
610.55	28.117
610.74	27.177
610.93	27.569
611.12	27.372
611.31	28.056
611.50	27.789
611.69	27.682
611.88	28.947
612.07	27.698
612.26	27.554
612.45	28.873
612.64	28.355
612.83	28.256
613.02	27.916
613.21	28.480
613.40	28.058
613.59	27.813
613.78	27.932
613.97	28.564
614.16	27.728
614.35	27.672
614.54	28.042
614.73	28.494
614.92	28.335
615.11	27.346
615.30	27.604
615.49	27.723
615.68	27.656
615.87	28.152
616.07	27.009
616.26	28.030
616.45	27.536
616.64	27.903
616.83	28.089
617.02	27.705
617.21	27.533
617.40	27.104
617.59	28.027
617.78	27.586
617.97	28.186
618.16	27.055
618.35	27.596
618.54	27.653
618.73	27.018
618.92	27.478
619.11	26.941
619.30	27.427
619.49	27.303
619.68	26.771
619.86	27.326
620.05	27.598
620.24	27.288
620.43	27.292
620.62	27.720
620.81	27.604
621.00	27.631
621.19	27.545
621.38	27.465
621.57	27.157
621.76	27.419
621.95	27.669
622.14	27.014
622.33	27.238
622.52	26.783
622.71	27.019
622.90	27.256
623.09	27.024
623.28	27.263
623.47	27.124
623.66	26.882
623.85	27.229
624.04	26.262
624.23	27.719
624.42	28.732
624.61	26.795
624.80	26.677
624.99	27.295
625.18	26.666
625.36	26.489
625.55	26.108
625.74	26.500
625.93	26.630
626.12	27.178
626.31	27.561
626.50	26.774
626.69	27.334
626.88	26.840
627.07	26.417
627.26	26.630
627.45	26.387
627.64	26.213
627.83	27.040
628.02	26.424
628.20	26.838
628.39	26.396
628.58	27.071
628.77	26.762
628.96	26.006
629.15	26.445
629.34	27.059
629.53	26.882
629.72	26.966
629.91	26.765
630.10	27.114
630.29	27.371
630.47	26.896
630.66	26.952
630.85	26.817
631.04	26.473
631.23	26.514
631.42	26.899
631.61	26.499
631.80	26.955
631.99	27.122
632.18	26.072
632.36	27.140
632.55	26.830
632.74	26.272
632.93	26.401
633.12	26.311
633.31	26.994
633.50	26.241
633.69	26.365
633.88	26.192
634.06	25.871
634.25	26.105
634.44	26.657
634.63	26.690
634.82	26.733
635.01	27.029
635.20	26.795
635.39	26.365
635.57	26.002
635.76	27.245
635.95	26.228
636.14	26.509
636.33	26.362
636.52	26.577
636.71	26.810
636.89	26.238
637.08	25.908
637.27	26.515
637.46	26.843
637.65	26.250
637.84	26.953
638.03	26.010
638.21	26.949
638.40	26.763
638.59	26.390
638.78	26.041
638.97	26.235
639.16	26.259
639.34	26.469
639.53	25.682
639.72	27.382
639.91	27.099
640.10	25.904
640.29	26.765
640.47	26.407
640.66	26.637
640.85	27.003
641.04	26.072
641.23	26.638
641.42	25.693
641.60	26.721
641.79	25.715
641.98	26.539
642.17	26.800
642.36	26.799
642.54	26.665
642.73	26.733
642.92	26.025
643.11	26.680
643.30	26.797
643.49	26.762
643.67	24.785
643.86	26.962
644.05	26.479
644.24	27.023
644.43	25.627
644.61	26.516
644.80	26.382
644.99	25.602
645.18	26.760
645.37	26.676
645.55	25.220
645.74	25.439
645.93	26.210
646.12	25.757
646.31	26.509
646.49	25.930
646.68	26.229
646.87	26.655
647.06	26.778
647.24	26.028
647.43	24.714
647.62	26.083
647.81	25.054
648.00	26.519
648.18	24.767
648.37	26.622
648.56	26.893
648.75	26.567
648.93	26.703
649.12	26.198
649.31	25.264
649.50	26.804
649.68	25.186
649.87	25.907
650.06	25.019
650.25	26.159
650.43	25.884
650.62	25.600
650.81	25.708
651.00	26.599
651.18	25.550
651.37	25.913
651.56	23.839
651.75	27.008
651.93	24.466
652.12	26.202
652.31	25.109
652.50	25.545
652.68	25.541
652.87	26.403
653.06	25.684
653.25	26.715
653.43	25.620
653.62	24.991
653.81	25.444
654.00	26.485
654.18	25.379
654.37	25.356
654.56	24.519
654.74	26.170
654.93	25.247
655.12	25.232
655.31	24.409
655.49	27.180
655.68	25.730
655.87	24.779
656.05	24.608
656.24	24.568
656.43	23.909
656.62	25.509
656.80	23.580
656.99	25.080
657.18	24.335
657.36	25.918
657.55	24.057
657.74	25.421
657.93	24.138
658.11	25.520
658.30	24.486
658.49	24.508
658.67	23.714
658.86	24.631
659.05	23.605
659.23	23.936
659.42	23.246
659.61	23.977
659.79	23.872
659.98	24.152
660.17	24.080
660.35	23.722
660.54	24.541
660.73	24.134
660.91	23.488
661.10	24.460
661.29	23.514
661.47	23.672
661.66	23.496
661.85	23.428
662.03	24.261
662.22	23.920
662.41	22.082
662.59	22.479
662.78	22.151
662.97	23.025
663.15	22.334
663.34	22.781
663.53	21.820
663.71	22.923
663.90	22.430
664.09	22.890
664.27	21.443
664.46	21.560
664.65	21.405
664.83	22.443
665.02	21.417
665.21	22.475
665.39	20.309
665.58	22.414
665.77	20.940
665.95	22.096
666.14	21.318
666.32	20.985
666.51	20.901
666.70	21.483
666.88	20.797
667.07	22.004
667.26	19.793
667.44	20.491
667.63	21.589
667.81	20.390
668.00	19.437
668.19	21.137
668.37	20.042
668.56	21.009
668.75	20.433
668.93	22.324
669.12	20.025
669.30	20.756
669.49	20.076
669.68	20.765
669.86	20.379
670.05	20.262
670.23	20.644
670.42	20.519
670.61	21.402
670.79	21.075
670.98	20.078
671.16	20.634
671.35	20.043
671.54	20.204
671.72	19.621
671.91	21.642
672.09	19.428
672.28	20.430
672.46	21.356
672.65	21.033
672.84	20.120
673.02	20.895
673.21	18.720
673.39	19.633
673.58	19.692
673.77	20.760
673.95	20.193
674.14	22.160
674.32	20.649
674.51	22.394
674.69	20.972
674.88	20.657
675.07	19.556
675.25	22.436
675.44	20.551
675.62	21.788
675.81	20.523
675.99	23.145
676.18	22.916
676.36	21.395
676.55	19.417
676.74	21.791
676.92	22.014
677.11	21.509
677.29	20.395
677.48	22.408
677.66	22.271
677.85	21.763
678.03	21.262
678.22	23.240
678.40	21.503
678.59	20.845
678.78	20.275
678.96	22.484
679.15	21.326
679.33	23.652
679.52	22.030
679.70	22.992
679.89	23.049
680.07	22.413
680.26	21.589
680.44	22.590
680.63	21.956
680.81	23.420
681.00	21.505
681.18	22.222
681.37	22.220
681.55	22.819
681.74	23.086
681.92	23.461
682.11	23.951
682.29	23.403
682.48	22.836
682.66	24.356
682.85	23.515
683.03	24.058
683.22	24.082
683.40	24.470
683.59	24.484
683.77	24.258
683.96	23.275
684.14	25.636
684.33	21.799
684.51	25.676
684.70	24.630
684.88	26.038
685.07	25.470
685.25	26.932
685.44	23.538
685.62	26.200
685.81	23.607
685.99	25.971
686.18	24.532
686.36	27.536
686.55	24.230
686.73	26.649
686.92	26.561
687.10	26.745
687.29	27.497
687.47	26.877
687.65	25.958
687.84	26.550
688.02	28.119
688.21	28.291
688.39	26.158
688.58	28.858
688.76	27.700
688.95	27.361
689.13	25.679
689.32	28.084
689.50	28.498
689.68	28.551
689.87	28.668
690.05	29.817
690.24	29.140
690.42	28.577
690.61	29.479
690.79	29.912
690.98	30.716
691.16	30.515
691.34	27.603
691.53	31.515
691.71	30.125
691.90	30.789
692.08	29.377
692.27	31.926
692.45	31.506
692.63	32.040
692.82	32.134
693.00	30.946
693.19	30.394
693.37	32.747
693.56	30.946
693.74	34.318
693.92	32.046
694.11	33.929
694.29	31.772
694.48	34.161
694.66	32.877
694.84	34.855
695.03	32.184
695.21	34.093
695.40	35.338
695.58	35.189
695.76	33.806
695.95	33.373
696.13	34.181
696.32	35.358
696.50	36.804
696.68	36.996
696.87	34.973
697.05	37.027
697.24	35.107
697.42	37.058
697.60	35.270
697.79	36.054
697.97	36.757
698.16	36.933
698.34	34.181
698.52	35.389
698.71	36.077
698.89	36.208
699.07	34.291
699.26	36.275
699.44	36.856
699.63	35.843
699.81	36.715
699.99	37.126
700.18	35.744
700.36	35.740
700.54	35.903
700.73	37.662
700.91	36.011
701.09	38.226
701.28	35.881
701.46	37.263
701.64	37.775
701.83	37.941
702.01	37.109
702.20	38.676
702.38	39.017
702.56	39.444
702.75	39.103
702.93	38.756
703.11	39.577
703.30	40.615
703.48	40.023
703.66	40.995
703.85	38.171
704.03	41.953
704.21	38.269
704.40	40.884
704.58	40.020
704.76	41.574
704.95	40.521
705.13	40.423
705.31	40.833
705.50	42.684
705.68	39.681
705.86	41.564
706.04	40.168
706.23	42.860
706.41	40.321
706.59	41.320
706.78	40.881
706.96	40.870
707.14	41.153
707.33	41.635
707.51	41.958
707.69	42.293
707.88	40.727
708.06	42.285
708.24	40.842
708.42	42.220
708.61	41.096
708.79	42.563
708.97	42.455
709.16	42.386
709.34	44.169
709.52	40.609
709.71	42.090
709.89	42.485
710.07	40.644
710.25	41.744
710.44	42.034
710.62	42.004
710.80	41.635
710.98	42.087
711.17	40.283
711.35	42.901
711.53	42.036
711.72	43.435
711.90	41.445
712.08	42.613
712.26	41.853
712.45	42.352
712.63	42.083
712.81	41.967
712.99	42.102
713.18	43.609
713.36	41.976
713.54	41.714
713.72	42.163
713.91	43.526
714.09	39.875
714.27	43.545
714.45	41.867
714.64	42.820
714.82	42.396
715.00	43.169
715.18	41.664
715.37	42.506
715.55	42.045
715.73	43.210
715.91	43.504
716.10	42.450
716.28	40.725
716.46	41.624
716.64	40.971
716.83	43.623
717.01	38.828
717.19	41.588
717.37	42.267
717.55	41.528
717.74	42.652
717.92	39.665
718.10	40.060
718.28	41.840
718.47	40.025
718.65	40.838
718.83	41.770
719.01	41.810
719.19	41.869
719.38	40.393
719.56	42.276
719.74	42.820
719.92	38.294
720.10	42.372
720.29	41.012
720.47	43.947
720.65	39.532
720.83	44.746
721.01	40.332
721.20	42.903
721.38	41.868
721.56	44.252
721.74	43.997
721.92	43.511
722.11	42.167
722.29	44.036
722.47	44.213
722.65	44.355
722.83	43.293
723.01	46.509
723.20	42.329
723.38	45.582
723.56	41.436
723.74	43.676
723.92	44.082
724.10	45.994
724.29	43.611
724.47	45.504
724.65	42.824
724.83	43.296
725.01	41.965
725.19	44.765
725.38	43.249
725.56	44.147
725.74	42.480
725.92	45.217
726.10	43.322
726.28	46.001
726.46	41.499
726.65	46.364
726.83	43.412
727.01	45.676
727.19	45.088
727.37	42.922
727.55	45.512
727.73	44.449
727.92	43.910
728.10	42.912
728.28	41.974
728.46	45.341
728.64	42.598
728.82	45.088
729.00	42.089
729.19	44.085
729.37	43.503
729.55	44.741
729.73	43.353
729.91	45.049
730.09	42.472
730.27	43.483
730.45	41.714
730.63	44.307
730.82	44.712
731.00	42.163
731.18	43.044
731.36	44.515
731.54	42.326
731.72	45.436
731.90	43.450
732.08	44.841
732.26	44.164
732.45	45.321
732.63	43.581
732.81	46.077
732.99	46.035
733.17	45.552
733.35	43.809
733.53	45.977
733.71	44.804
733.89	45.083
734.07	44.908
734.25	48.102
734.44	45.869
734.62	46.314
734.80	46.445
734.98	46.624
735.16	45.608
735.34	46.166
735.52	47.448
735.70	47.057
735.88	46.964
736.06	47.246
736.24	50.279
736.42	47.923
736.60	49.066
736.78	49.001
736.97	47.874
737.15	52.367
737.33	48.659
737.51	49.788
737.69	49.080
737.87	49.164
738.05	47.658
738.23	48.780
738.41	49.638
738.59	50.285
738.77	48.384
738.95	49.256
739.13	49.414
739.31	46.258
739.49	48.132
739.67	50.077
739.85	46.386
740.03	47.676
740.21	46.462
740.39	52.461
740.57	50.238
740.75	48.539
740.93	47.726
741.11	51.311
741.30	48.091
741.48	49.058
741.66	49.268
741.84	52.577
742.02	49.326
742.20	54.345
742.38	48.525
742.56	50.404
742.74	51.628
742.92	53.211
743.10	50.885
743.28	52.075
743.46	49.442
743.64	50.272
743.82	49.148
744.00	52.885
744.18	50.746
744.36	52.086
744.54	50.063
744.72	52.548
744.90	53.279
745.08	52.930
745.26	51.733
745.44	56.014
745.62	51.824
745.80	52.945
745.98	52.258
746.16	54.820
746.34	51.172
746.52	55.451
746.70	54.694
746.87	55.559
747.05	50.364
747.23	53.659
747.41	52.168
747.59	51.754
747.77	52.469
747.95	54.734
748.13	52.232
748.31	54.356
748.49	53.068
748.67	52.759
748.85	51.796
749.03	54.759
749.21	51.538
749.39	56.264
749.57	50.504
749.75	50.572
749.93	52.460
750.11	52.134
750.29	53.854
750.47	49.892
750.65	50.403
750.83	52.804
751.01	51.004
751.18	52.312
751.36	53.210
751.54	52.590
751.72	50.047
751.90	53.987
752.08	51.077
752.26	51.559
752.44	52.434
752.62	52.446
752.80	51.426
752.98	55.414
753.16	52.805
753.34	50.474
753.52	57.228
753.69	54.873
753.87	52.291
754.05	56.748
754.23	52.459
754.41	54.047
754.59	52.756
754.77	54.554
754.95	52.565
755.13	54.436
755.31	53.488
755.49	53.398
755.66	49.967
755.84	52.254
756.02	51.457
756.20	55.383
756.38	52.076
756.56	50.294
756.74	49.460
756.92	50.985
757.10	52.633
757.28	56.926
757.45	56.134
757.63	51.869
757.81	52.321
757.99	54.767
758.17	54.389
758.35	54.351
758.53	51.681
758.71	51.340
758.88	51.298
759.06	52.312
759.24	49.406
759.42	49.493
759.60	48.980
759.78	46.381
759.96	44.146
760.13	47.386
760.31	40.595
760.49	42.074
760.67	37.715
760.85	41.865
761.03	38.848
761.21	40.308
761.38	37.538
761.56	42.395
761.74	38.327
761.92	41.806
762.10	36.680
762.28	40.231
762.46	37.567
762.63	39.745
762.81	40.596
762.99	41.583
763.17	40.647
763.35	41.752
763.53	38.280
763.70	41.874
763.88	39.854
764.06	41.435
764.24	38.719
764.42	42.145
764.60	39.942
764.77	41.474
764.95	40.651
765.13	42.776
765.31	42.536
765.49	42.824
765.66	41.515
765.84	45.133
766.02	43.316
766.20	42.817
766.38	44.491
766.56	44.519
766.73	45.753
766.91	45.051
767.09	48.817
767.27	48.405
767.45	46.856
767.62	48.371
767.80	46.069
767.98	52.113
768.16	49.578
768.33	53.636
768.51	49.164
768.69	51.748
768.87	50.693
769.05	54.481
769.22	52.525
769.40	55.450
769.58	52.514
769.76	56.264
769.94	51.614
770.11	49.794
770.29	55.366
770.47	53.041
770.65	55.965
770.82	59.802
771.00	56.777
771.18	57.534
771.36	53.032
771.53	55.407
771.71	54.282
771.89	59.136
772.07	54.167
772.25	56.917
772.42	54.511
772.60	58.115
772.78	59.494
772.96	57.381
773.13	56.060
773.31	54.349
773.49	55.893
773.67	58.678
773.84	50.871
774.02	58.774
774.20	59.175
774.37	55.397
774.55	57.664
774.73	55.828
774.91	55.873
775.08	56.606
775.26	61.325
775.44	64.163
775.62	55.267
775.79	60.769
775.97	56.981
776.15	58.812
776.32	57.930
776.50	62.039
776.68	58.388
776.86	59.268
777.03	56.287
777.21	59.675
777.39	56.535
777.56	60.665
777.74	57.164
777.92	57.407
778.10	55.940
778.27	58.773
778.45	58.325
778.63	57.150
778.80	56.800
778.98	59.275
779.16	58.197
779.34	59.195
779.51	59.803
779.69	55.045
779.87	55.115
780.04	57.664
780.22	51.465
780.40	58.400
780.57	53.080
780.75	55.193
780.93	62.180
781.10	56.165
781.28	60.075
781.46	57.757
781.63	54.900
781.81	62.679
781.99	56.460
782.16	58.882
782.34	53.284
782.52	56.247
782.69	56.922
782.87	59.530
783.05	54.587
783.22	54.715
783.40	60.623
783.58	59.074
783.75	58.583
783.93	63.898
784.11	57.539
784.28	57.379
784.46	55.451
784.64	58.762
784.81	53.903
784.99	62.200
785.17	61.108
785.34	56.173
785.52	55.814
785.69	60.963
785.87	58.557
786.05	54.590
786.22	59.339
786.40	62.907
786.58	57.757
786.75	60.529
786.93	56.404
787.11	55.231
787.28	58.482
787.46	61.862
787.63	54.578
787.81	58.309
787.99	57.724
788.16	55.355
788.34	51.327
788.51	57.749
788.69	50.867
788.87	51.880
789.04	47.402
789.22	55.650
789.39	52.675
789.57	53.308
789.75	52.448
789.92	54.492
790.10	51.021
790.27	54.062
790.45	49.267
790.63	52.258
790.80	49.766
790.98	52.521
791.15	49.757
791.33	56.309
791.51	51.837
791.68	54.502
791.86	59.036
792.03	53.146
792.21	55.980
792.39	60.102
792.56	58.906
792.74	52.582
792.91	55.337
793.09	52.800
793.26	51.225
793.44	55.110
793.62	53.525
793.79	57.143
793.97	58.188
794.14	53.129
794.32	57.306
794.49	57.690
794.67	53.871
794.84	55.107
795.02	55.644
795.20	53.313
795.37	50.179
795.55	51.172
795.72	50.391
795.90	53.949
796.07	51.284
796.25	53.726
796.42	49.642
796.60	52.897
796.77	44.691
796.95	50.615
797.13	53.117
797.30	52.530
797.48	49.730
797.65	57.431
797.83	53.428
798.00	55.285
798.18	44.989
798.35	53.780
798.53	53.767
798.70	54.454
798.88	51.034
799.05	49.776
799.23	51.502
799.40	51.659
799.58	48.476
799.75	50.608
799.93	45.999
800.10	54.798
800.28	54.652
800.45	55.795
800.63	44.431
800.80	50.940
800.98	47.182
801.15	57.051
801.33	53.217
801.50	52.835
801.68	50.748
801.85	55.009
802.03	48.329
802.20	54.702
802.38	59.254
802.55	51.361
802.73	53.230
802.90	53.221
803.08	54.278
803.25	52.876
803.43	52.147
803.60	49.597
803.78	54.119
803.95	55.723
804.13	53.407
804.30	60.202
804.48	44.934
804.65	58.167
804.83	54.082
805.00	52.869
805.17	51.081
805.35	57.568
805.52	55.902
805.70	56.680
805.87	54.735
806.05	50.992
806.22	52.050
806.40	50.031
806.57	53.289
806.75	58.886
806.92	52.961
807.09	55.399
807.27	57.124
807.44	57.838
807.62	48.555
807.79	51.583
807.97	50.908
808.14	56.460
808.31	45.003
808.49	47.906
808.66	58.209
808.84	51.883
809.01	50.213
809.19	51.980
809.36	56.265
809.53	52.794
809.71	55.502
809.88	60.629
810.06	54.780
810.23	54.951
810.41	60.563
810.58	55.672
810.75	54.511
810.93	59.204
811.10	48.779
811.28	49.699
811.45	55.315
811.62	47.689
811.80	53.666
811.97	53.162
812.15	59.537
812.32	52.381
812.49	57.310
812.67	48.994
812.84	51.454
813.02	56.725
813.19	48.668
813.36	52.214
813.54	48.055
813.71	52.730
813.89	54.245
814.06	58.819
814.23	48.262
814.41	52.298
814.58	53.110
814.75	56.971
814.93	52.480
815.10	47.264
815.28	42.845
815.45	48.090
815.62	44.686
815.80	43.579
815.97	47.095
816.14	45.064
816.32	52.373
816.49	42.914
816.66	45.075
816.84	46.336
817.01	46.604
817.18	45.336
817.36	47.144
817.53	47.912
817.71	36.599
817.88	44.874
818.05	48.507
818.23	50.507
818.40	44.194
818.57	43.475
818.75	38.525
818.92	46.677
819.09	47.119
819.27	39.188
819.44	44.812
819.61	46.003
819.79	42.807
819.96	42.601
820.13	37.051
820.31	42.720
820.48	43.765
820.65	41.159
820.82	41.310
821.00	43.750
821.17	34.742
821.34	38.966
821.52	41.349
821.69	40.776
821.86	35.007
822.04	36.044
822.21	34.461
822.38	35.892
822.56	36.587
822.73	38.226
822.90	35.512
823.07	37.111
823.25	36.655
823.42	36.604
823.59	36.699
823.77	37.821
823.94	36.353
824.11	37.999
824.29	38.527
824.46	38.058
824.63	38.068
824.80	39.973
824.98	39.573
825.15	39.424
825.32	36.567
825.49	40.205
825.67	37.673
825.84	39.995
826.01	40.553
826.19	39.115
826.36	39.435
826.53	36.735
826.70	37.733
826.88	43.461
827.05	36.977
827.22	39.041
827.39	38.967
827.57	35.426
827.74	36.845
827.91	39.022
828.08	34.664
828.26	39.028
828.43	36.361
828.60	38.024
828.77	34.983
828.95	40.198
829.12	37.388
829.29	35.574
829.46	38.743
829.64	37.544
829.81	35.229
829.98	41.562
830.15	37.586
830.32	34.751
830.50	37.529
830.67	41.514
830.84	38.070
831.01	38.420
831.19	41.018
831.36	37.115
831.53	46.786
831.70	42.983
831.87	37.786
832.05	50.839
832.22	45.386
832.39	43.385
832.56	36.267
832.74	52.733
832.91	41.534
833.08	48.945
833.25	41.476
833.42	36.243
833.60	38.246
833.77	35.872
833.94	37.745
834.11	38.841
834.28	32.514
834.45	35.629
834.63	35.581
834.80	39.834
834.97	35.873
835.14	39.235
835.31	35.968
835.49	37.350
835.66	38.388
835.83	37.219
836.00	34.559
836.17	39.573
836.34	36.186
836.52	42.993
836.69	40.825
836.86	41.139
837.03	39.339
837.20	40.328
837.37	43.671
837.55	39.647
837.72	42.976
837.89	39.504
838.06	48.689
838.23	50.250
838.40	46.694
838.58	43.795
838.75	48.698
838.92	58.248
839.09	60.515
839.26	50.049
839.43	64.013
839.60	59.013
839.78	55.141
839.95	57.302
840.12	57.127
840.29	63.606
840.46	55.040
840.63	54.352
840.80	49.802
840.98	50.095
841.15	58.158
841.32	47.182
841.49	50.800
841.66	46.489
841.83	55.597
842.00	57.058
842.17	45.540
842.34	47.861
842.52	53.399
842.69	56.250
842.86	57.461
843.03	63.586
843.20	50.448
843.37	61.842
843.54	69.656
843.71	65.557
843.88	74.471
844.06	64.444
844.23	67.943
844.40	70.776
844.57	66.467
844.74	67.414
844.91	76.355
845.08	71.570
845.25	86.333
845.42	94.563
845.59	65.700
845.76	81.736
845.94	80.073
846.11	78.484
846.28	83.264
846.45	89.484
846.62	89.308
846.79	73.380
846.96	89.432
847.13	104.145
847.30	75.045
847.47	61.593
847.64	64.952
847.81	75.610
847.98	92.233
848.15	84.932
848.32	89.011
848.50	77.228
848.67	69.593
848.84	87.161
849.01	79.739
849.18	91.189
849.35	96.368
849.52	101.639
849.69	88.503
849.86	82.385
850.03	84.354
850.20	76.829
850.37	72.673
850.54	87.500
850.71	91.816
850.88	71.089
851.05	96.829
851.22	85.166
851.39	100.617
851.56	75.534
851.73	99.384
851.90	86.560
852.07	88.932
852.24	77.053
852.41	82.293
852.58	95.730
852.75	83.571
852.92	84.842
853.09	102.535
853.26	131.677
853.43	92.360
853.60	90.000
853.77	94.245
853.94	97.887
854.11	82.875
854.28	99.762
854.45	80.645
854.62	93.166
854.79	101.991
854.96	76.590
855.13	88.596
855.30	85.000
855.47	106.425
855.64	100.000
855.81	89.545
855.98	116.053
856.15	105.473
856.32	86.458
856.49	88.022
856.66	103.908
856.83	95.866
857.00	97.727
857.17	94.444
857.34	82.851
857.51	79.753
857.68	82.426
857.85	81.909
858.02	91.129
858.19	75.510
858.36	79.221
858.53	85.194
858.70	87.198
858.87	92.097
859.04	77.542
859.21	77.363
859.38	95.100
859.55	108.764
859.72	81.609
859.89	106.091
860.05	91.879
860.22	101.942
860.39	100.000
860.56	89.032
860.73	100.242
860.90	89.506
861.07	81.007
861.24	95.090
861.41	106.452
861.58	76.942
861.75	98.143
861.92	94.565
862.09	94.481
862.26	95.991
862.43	120.053
862.59	89.239
862.76	103.242
862.93	134.933
863.10	82.759
863.27	88.918
863.44	82.821
863.61	99.204
863.78	93.525
863.95	136.149
864.12	89.009
864.29	107.477
864.45	77.447
864.62	78.049
864.79	105.376
864.96	84.793
865.13	82.391
865.30	81.649
865.47	83.766
865.64	120.669
865.81	88.268
865.97	80.682
866.14	98.634
866.31	71.233
866.48	97.701
866.65	83.942
866.82	91.892
866.99	87.440
867.16	60.238
867.33	96.712
867.49	84.798
867.66	86.858
867.83	78.935
868.00	88.740
868.17	80.795
868.34	109.574
868.51	81.975
868.67	104.061
868.84	91.034
869.01	91.739
869.18	74.504
869.35	86.607
869.52	86.079
869.69	104.878
869.85	100.295
870.02	85.455
870.19	76.341
870.36	101.896
870.53	92.073
870.70	79.052
870.86	67.792
871.03	111.166
871.20	110.882
871.37	105.160
871.54	97.895
871.71	88.998
871.87	89.685
872.04	75.636
872.21	74.375
872.38	90.426
872.55	109.223
872.72	95.283
872.88	98.673
873.05	89.038
873.22	79.277
873.39	85.880
873.56	94.279
873.72	104.384
873.89	70.277
874.06	85.864
874.23	112.536
874.40	80.203
874.56	77.682
874.73	91.051
874.90	76.887
875.07	85.455
875.24	89.954
875.40	78.355
875.57	88.544
875.74	78.621
875.91	77.412
876.08	80.401
876.24	105.024
876.41	92.157
876.58	85.067
876.75	78.947
876.92	94.751
877.08	89.444
877.25	69.816
877.42	76.078
877.59	76.524
877.75	76.584
877.92	58.547
878.09	70.050
878.26	75.127
878.42	80.412
878.59	105.926
878.76	89.024
878.93	87.924
879.09	77.324
879.26	75.816
879.43	84.211
879.60	60.553
879.76	89.286
879.93	66.611
880.10	56.262
880.27	59.562
880.43	54.599
880.60	55.959
880.77	58.669
880.94	58.129
881.10	44.381
881.27	37.595
881.44	33.995
881.61	34.829
881.77	38.938
881.94	32.724
882.11	25.906
882.28	31.984
882.44	30.069
882.61	31.072
882.78	28.819
882.94	36.434
883.11	32.612
883.28	32.736
883.45	33.821
883.61	30.688
883.78	31.908
883.95	36.612
884.11	34.588
884.28	31.624
>>>>>End Processed Spectral Data<<<<<
