SpectraSuite Data File
++++++++++++++++++++++++++++++++++++
Date: Thu Sep 26 04:06:20 EST 2019
User: sgrac
Dark Spectrum Present: Yes
Reference Spectrum Present: Yes
Number of Sampled Component Spectra: 1
Spectrometers: USB4E01596
Integration Time (usec): 100000 (USB4E01596)
Spectra Averaged: 3 (USB4E01596)
Boxcar Smoothing: 0 (USB4E01596)
Correct for Electrical Dark: No (USB4E01596)
Strobe/Lamp Enabled: Yes (USB4E01596)
Correct for Detector Non-linearity: No (USB4E01596)
Correct for Stray Light: No (USB4E01596)
Number of Pixels in Processed Spectrum: 3648
>>>>>Begin Processed Spectral Data<<<<<
178.44	-2250.000
178.66	-2250.000
178.87	-2250.000
179.09	-377.551
179.30	-222.619
179.52	-1240.909
179.74	-550.000
179.95	-1923.077
180.17	301.205
180.38	1664.286
180.60	564.286
180.82	385.542
181.03	436.111
181.25	324.038
181.46	-806.452
181.68	396.667
181.89	1646.667
182.11	-1466.667
182.33	361.165
182.54	357.471
182.76	526.786
182.97	1055.556
183.19	170.186
183.40	317.476
183.62	3362.500
183.84	286.957
184.05	2241.667
184.27	342.268
184.48	-888.889
184.70	1514.286
184.91	363.000
185.13	1926.667
185.34	886.486
185.56	2750.000
185.78	287.629
185.99	414.286
186.21	725.714
186.42	1833.333
186.64	1261.905
186.85	278.571
187.07	452.857
187.28	443.860
187.50	1560.870
187.72	1600.000
187.93	755.319
188.15	592.453
188.36	837.500
188.58	7966.667
188.79	622.500
189.01	6100.000
189.22	355.357
189.44	1237.500
189.65	2988.889
189.87	808.108
190.09	961.290
190.30	533.333
190.52	-20000.000
190.73	-20300.000
190.95	1650.000
191.16	294.495
191.38	265.217
191.59	964.706
191.81	463.793
192.02	883.333
192.24	387.671
192.45	268.421
192.67	763.830
192.88	525.641
193.10	265.116
193.31	296.629
193.53	1682.353
193.74	328.049
193.96	345.000
194.18	1278.947
194.39	262.609
194.61	2663.636
194.82	374.324
195.04	221.905
195.25	257.812
195.47	696.875
195.68	268.354
195.90	1035.000
196.11	319.000
196.33	1065.385
196.54	407.937
196.76	907.143
196.97	990.909
197.19	836.111
197.40	-675.556
197.62	360.000
197.83	260.504
198.05	503.774
198.26	485.915
198.48	2791.667
198.69	0.000
198.91	2222.222
199.12	522.222
199.34	310.145
199.55	291.892
199.77	316.092
199.98	8300.000
200.20	337.879
200.41	314.953
200.63	1157.143
200.84	495.652
201.06	310.345
201.27	1285.714
201.49	1520.000
201.70	-1600.000
201.91	390.426
202.13	728.205
202.34	-293.750
202.56	739.394
202.77	2460.000
202.99	811.765
203.20	527.869
203.42	601.818
203.63	309.890
203.85	241.606
204.06	407.895
204.28	298.810
204.49	661.765
204.71	308.451
204.92	-12500.000
205.14	1053.571
205.35	342.029
205.56	1008.333
205.78	445.763
205.99	518.868
206.21	305.556
206.42	388.636
206.64	940.625
206.85	315.476
207.07	207.200
207.28	195.726
207.50	515.152
207.71	1023.810
207.93	-722.222
208.14	-2600.000
208.35	912.000
208.57	267.778
208.78	672.000
209.00	573.684
209.21	5575.000
209.43	336.538
209.64	790.625
209.86	4320.000
210.07	709.756
210.28	-510.526
210.50	7733.333
210.71	766.667
210.93	244.828
211.14	446.154
211.36	1500.000
211.57	696.429
211.78	1300.000
212.00	1029.167
212.21	503.448
212.43	861.905
212.64	276.699
212.86	370.513
213.07	267.544
213.29	1560.000
213.50	296.203
213.71	232.258
213.93	636.364
214.14	256.731
214.36	182.353
214.57	689.362
214.78	321.951
215.00	325.882
215.21	303.704
215.43	829.630
215.64	331.522
215.86	186.331
216.07	868.000
216.28	277.215
216.50	333.019
216.71	320.732
216.93	714.286
217.14	3354.545
217.35	654.286
217.57	419.355
217.78	222.124
218.00	382.979
218.21	225.658
218.42	500.000
218.64	253.465
218.85	298.214
219.07	347.000
219.28	740.000
219.49	665.789
219.71	500.000
219.92	-2210.000
220.14	460.937
220.35	1116.667
220.56	-11300.000
220.78	237.302
220.99	547.500
221.21	274.699
221.42	435.897
221.63	468.085
221.85	0.000
222.06	250.943
222.28	808.571
222.49	404.545
222.70	1292.857
222.92	401.282
223.13	165.278
223.34	232.609
223.56	220.000
223.77	182.166
223.99	172.671
224.20	205.128
224.41	540.426
224.63	155.782
224.84	260.360
225.05	249.618
225.27	206.936
225.48	207.895
225.69	179.121
225.91	207.826
226.12	169.481
226.34	94.118
226.55	181.618
226.76	125.604
226.98	115.678
227.19	141.899
227.40	159.444
227.62	124.254
227.83	126.104
228.04	94.643
228.26	93.606
228.47	90.931
228.69	62.295
228.90	48.775
229.11	48.497
229.33	53.333
229.54	32.703
229.75	39.147
229.97	38.659
230.18	28.603
230.39	37.808
230.61	31.414
230.82	40.385
231.03	33.943
231.25	38.392
231.46	30.635
231.67	44.304
231.89	45.818
232.10	43.916
232.31	42.083
232.53	35.908
232.74	33.277
232.95	46.791
233.17	48.115
233.38	45.341
233.59	53.464
233.81	53.177
234.02	43.585
234.23	51.904
234.45	59.558
234.66	40.840
234.87	44.524
235.09	46.597
235.30	49.217
235.51	42.779
235.73	44.759
235.94	32.590
236.15	52.768
236.36	52.396
236.58	51.057
236.79	46.330
237.00	39.523
237.22	38.601
237.43	46.055
237.64	39.286
237.86	38.833
238.07	48.297
238.28	51.379
238.50	39.324
238.71	42.468
238.92	47.086
239.13	43.373
239.35	53.358
239.56	39.123
239.77	41.193
239.99	33.638
240.20	55.177
240.41	35.550
240.63	44.595
240.84	39.936
241.05	18.163
241.26	30.291
241.48	28.208
241.69	22.507
241.90	25.286
242.12	20.432
242.33	25.856
242.54	9.886
242.75	14.963
242.97	21.147
243.18	11.914
243.39	9.866
243.61	13.749
243.82	13.147
244.03	14.071
244.24	13.252
244.46	15.878
244.67	14.581
244.88	17.197
245.09	10.526
245.31	14.038
245.52	19.286
245.73	20.396
245.95	28.260
246.16	21.938
246.37	17.338
246.58	13.467
246.80	14.745
247.01	16.702
247.22	11.068
247.43	14.364
247.65	12.469
247.86	10.972
248.07	9.572
248.28	9.864
248.50	9.793
248.71	9.375
248.92	7.349
249.13	7.596
249.35	10.571
249.56	7.787
249.77	10.138
249.98	7.812
250.20	10.940
250.41	14.155
250.62	11.447
250.83	14.382
251.05	19.411
251.26	16.147
251.47	19.919
251.68	20.108
251.90	15.826
252.11	17.647
252.32	14.892
252.53	16.854
252.75	16.642
252.96	17.383
253.17	15.601
253.38	13.778
253.59	14.691
253.81	16.139
254.02	17.736
254.23	11.801
254.44	14.820
254.66	16.816
254.87	18.228
255.08	16.207
255.29	19.508
255.50	18.782
255.72	20.446
255.93	20.179
256.14	26.432
256.35	18.154
256.57	21.944
256.78	20.154
256.99	17.719
257.20	22.544
257.41	21.614
257.63	12.878
257.84	15.157
258.05	22.059
258.26	13.386
258.47	16.462
258.69	13.662
258.90	13.273
259.11	15.419
259.32	13.716
259.53	9.657
259.75	9.679
259.96	8.091
260.17	6.438
260.38	7.844
260.59	6.658
260.81	7.859
261.02	7.357
261.23	6.470
261.44	6.670
261.65	7.170
261.87	7.597
262.08	8.615
262.29	8.362
262.50	7.107
262.71	8.618
262.92	9.571
263.14	7.846
263.35	9.126
263.56	9.921
263.77	12.665
263.98	13.672
264.20	10.807
264.41	12.268
264.62	13.026
264.83	10.734
265.04	14.086
265.25	12.386
265.47	13.463
265.68	16.826
265.89	13.884
266.10	10.032
266.31	16.210
266.52	10.083
266.74	10.297
266.95	7.160
267.16	11.527
267.37	14.066
267.58	11.427
267.79	11.460
268.01	12.293
268.22	10.179
268.43	9.891
268.64	9.554
268.85	11.641
269.06	9.880
269.27	11.193
269.49	8.424
269.70	9.876
269.91	10.328
270.12	8.721
270.33	12.256
270.54	10.562
270.75	8.961
270.97	10.504
271.18	10.059
271.39	10.898
271.60	10.423
271.81	8.919
272.02	6.633
272.23	10.336
272.45	7.895
272.66	6.432
272.87	7.998
273.08	5.996
273.29	7.330
273.50	5.720
273.71	7.840
273.92	8.190
274.14	8.956
274.35	6.979
274.56	9.323
274.77	6.352
274.98	8.916
275.19	8.471
275.40	8.118
275.61	6.683
275.83	9.556
276.04	7.812
276.25	10.186
276.46	7.223
276.67	11.578
276.88	8.706
277.09	10.745
277.30	8.497
277.51	8.582
277.73	8.643
277.94	7.994
278.15	10.331
278.36	12.062
278.57	10.300
278.78	8.142
278.99	9.846
279.20	10.258
279.41	9.855
279.62	9.981
279.84	6.069
280.05	7.885
280.26	7.324
280.47	10.629
280.68	6.217
280.89	12.319
281.10	9.867
281.31	8.499
281.52	8.186
281.73	7.565
281.94	6.944
282.16	8.845
282.37	9.278
282.58	8.186
282.79	10.263
283.00	8.987
283.21	6.828
283.42	4.545
283.63	5.718
283.84	6.988
284.05	8.070
284.26	8.105
284.47	8.986
284.68	6.249
284.89	7.052
285.11	6.263
285.32	8.000
285.53	8.793
285.74	6.947
285.95	6.744
286.16	6.601
286.37	6.811
286.58	5.895
286.79	5.105
287.00	4.756
287.21	7.073
287.42	7.123
287.63	6.285
287.84	6.419
288.05	6.747
288.26	7.512
288.48	6.307
288.69	6.528
288.90	5.973
289.11	7.604
289.32	7.866
289.53	6.276
289.74	6.264
289.95	7.931
290.16	6.510
290.37	5.876
290.58	7.480
290.79	6.763
291.00	6.072
291.21	6.358
291.42	5.856
291.63	5.951
291.84	7.315
292.05	5.064
292.26	5.547
292.47	7.153
292.68	5.961
292.89	6.726
293.10	7.155
293.31	8.560
293.52	6.012
293.73	4.629
293.94	9.082
294.15	8.350
294.36	8.078
294.57	7.621
294.79	8.371
295.00	4.749
295.21	7.758
295.42	5.244
295.63	5.965
295.84	8.186
296.05	6.236
296.26	6.103
296.47	6.420
296.68	5.846
296.89	6.532
297.10	6.991
297.31	6.522
297.52	4.919
297.73	5.678
297.94	4.463
298.15	4.452
298.36	4.553
298.57	5.107
298.78	4.390
298.99	4.933
299.20	4.817
299.41	5.629
299.62	5.435
299.83	5.993
300.04	4.963
300.25	5.265
300.46	5.184
300.67	6.707
300.88	7.286
301.09	4.396
301.30	6.096
301.50	6.211
301.71	8.366
301.92	6.047
302.13	5.912
302.34	4.598
302.55	8.093
302.76	6.945
302.97	6.087
303.18	5.772
303.39	8.439
303.60	5.790
303.81	6.725
304.02	5.476
304.23	7.141
304.44	6.284
304.65	7.433
304.86	6.467
305.07	5.797
305.28	8.571
305.49	7.771
305.70	7.235
305.91	5.710
306.12	5.667
306.33	7.395
306.54	6.001
306.75	7.417
306.96	6.568
307.17	6.400
307.38	6.887
307.58	6.187
307.79	8.302
308.00	8.005
308.21	7.381
308.42	6.308
308.63	7.339
308.84	6.649
309.05	7.543
309.26	5.080
309.47	6.051
309.68	6.307
309.89	7.550
310.10	6.125
310.31	5.245
310.52	5.702
310.73	7.708
310.94	5.843
311.14	5.099
311.35	7.247
311.56	6.568
311.77	5.544
311.98	4.382
312.19	4.719
312.40	5.415
312.61	4.400
312.82	6.724
313.03	4.763
313.24	6.642
313.45	6.550
313.66	5.734
313.86	6.366
314.07	5.916
314.28	5.744
314.49	6.832
314.70	6.669
314.91	7.264
315.12	7.727
315.33	8.366
315.54	6.996
315.75	5.568
315.96	5.487
316.16	4.986
316.37	6.847
316.58	5.683
316.79	6.575
317.00	7.909
317.21	6.898
317.42	6.471
317.63	7.452
317.84	5.270
318.05	4.997
318.25	6.372
318.46	5.193
318.67	8.370
318.88	6.917
319.09	8.798
319.30	6.046
319.51	7.050
319.72	8.845
319.93	5.540
320.13	4.356
320.34	6.700
320.55	6.715
320.76	7.883
320.97	5.529
321.18	6.794
321.39	6.870
321.60	7.177
321.80	8.596
322.01	7.148
322.22	6.539
322.43	4.334
322.64	6.106
322.85	7.568
323.06	7.248
323.27	8.412
323.47	8.003
323.68	6.730
323.89	5.757
324.10	8.388
324.31	5.784
324.52	7.446
324.73	5.226
324.93	6.532
325.14	6.297
325.35	6.858
325.56	5.820
325.77	6.093
325.98	5.378
326.19	6.632
326.39	5.071
326.60	6.839
326.81	4.949
327.02	4.068
327.23	4.728
327.44	7.142
327.64	5.097
327.85	5.877
328.06	6.297
328.27	7.507
328.48	6.759
328.69	4.837
328.90	6.796
329.10	4.726
329.31	6.540
329.52	7.072
329.73	7.664
329.94	6.958
330.15	7.203
330.35	7.922
330.56	7.772
330.77	6.047
330.98	7.115
331.19	5.893
331.39	7.319
331.60	7.819
331.81	4.521
332.02	7.463
332.23	6.361
332.44	6.584
332.64	6.282
332.85	5.912
333.06	6.974
333.27	6.346
333.48	6.610
333.68	7.208
333.89	5.732
334.10	5.600
334.31	7.343
334.52	9.160
334.72	5.281
334.93	6.098
335.14	5.730
335.35	6.106
335.56	7.436
335.76	5.984
335.97	7.611
336.18	4.485
336.39	6.925
336.60	5.701
336.80	4.330
337.01	6.588
337.22	6.433
337.43	6.629
337.64	8.065
337.84	6.257
338.05	5.691
338.26	7.335
338.47	6.202
338.68	6.171
338.88	5.402
339.09	6.141
339.30	5.672
339.51	4.935
339.71	6.171
339.92	5.358
340.13	5.097
340.34	4.907
340.55	5.531
340.75	6.580
340.96	6.627
341.17	6.441
341.38	5.499
341.58	5.398
341.79	5.189
342.00	4.805
342.21	5.434
342.41	5.031
342.62	5.223
342.83	6.726
343.04	4.619
343.24	7.205
343.45	5.126
343.66	6.473
343.87	4.694
344.07	6.158
344.28	5.136
344.49	6.358
344.70	6.731
344.90	4.987
345.11	6.393
345.32	5.273
345.53	4.982
345.73	6.861
345.94	5.230
346.15	5.813
346.36	5.379
346.56	6.444
346.77	5.076
346.98	5.772
347.19	5.353
347.39	5.314
347.60	5.274
347.81	5.813
348.02	6.750
348.22	4.569
348.43	5.326
348.64	5.243
348.84	6.598
349.05	5.426
349.26	6.567
349.47	5.686
349.67	4.870
349.88	5.652
350.09	5.943
350.30	5.968
350.50	5.521
350.71	6.423
350.92	4.912
351.12	5.622
351.33	6.723
351.54	5.857
351.74	5.369
351.95	5.673
352.16	5.660
352.37	7.480
352.57	6.480
352.78	6.366
352.99	5.442
353.19	5.969
353.40	5.511
353.61	7.623
353.82	7.384
354.02	6.248
354.23	5.758
354.44	6.169
354.64	6.159
354.85	5.000
355.06	5.597
355.26	4.019
355.47	5.238
355.68	6.396
355.88	5.344
356.09	6.129
356.30	5.394
356.51	5.285
356.71	6.224
356.92	4.022
357.13	5.297
357.33	5.623
357.54	4.458
357.75	4.334
357.95	5.425
358.16	4.460
358.37	6.252
358.57	4.497
358.78	7.365
358.99	3.647
359.19	5.189
359.40	5.401
359.61	5.055
359.81	6.450
360.02	5.713
360.23	5.251
360.43	4.338
360.64	5.461
360.85	4.348
361.05	4.126
361.26	5.005
361.47	4.518
361.67	5.529
361.88	3.688
362.09	4.344
362.29	3.576
362.50	3.306
362.70	3.961
362.91	3.858
363.12	3.925
363.32	4.086
363.53	4.382
363.74	4.373
363.94	3.983
364.15	4.622
364.36	5.159
364.56	3.263
364.77	5.179
364.98	5.935
365.18	5.011
365.39	5.794
365.59	4.400
365.80	4.411
366.01	4.840
366.21	4.411
366.42	3.961
366.63	4.732
366.83	4.812
367.04	3.736
367.24	5.820
367.45	3.356
367.66	3.736
367.86	4.387
368.07	5.377
368.28	4.610
368.48	4.613
368.69	3.593
368.89	4.321
369.10	5.206
369.31	4.548
369.51	3.801
369.72	5.901
369.92	5.089
370.13	4.040
370.34	5.194
370.54	4.537
370.75	5.459
370.95	3.829
371.16	5.898
371.37	4.236
371.57	5.185
371.78	5.283
371.98	4.519
372.19	5.032
372.40	4.623
372.60	4.873
372.81	3.767
373.01	3.244
373.22	3.622
373.43	5.966
373.63	3.667
373.84	5.470
374.04	5.003
374.25	5.143
374.46	4.348
374.66	5.894
374.87	4.936
375.07	3.079
375.28	3.559
375.48	5.001
375.69	5.458
375.90	4.480
376.10	3.395
376.31	4.185
376.51	3.346
376.72	3.166
376.92	4.200
377.13	4.662
377.34	5.385
377.54	4.615
377.75	5.212
377.95	3.723
378.16	4.798
378.36	4.457
378.57	5.783
378.77	4.468
378.98	4.658
379.19	3.652
379.39	3.856
379.60	4.584
379.80	4.808
380.01	4.814
380.21	4.464
380.42	5.322
380.62	4.575
380.83	5.085
381.04	4.198
381.24	5.093
381.45	4.224
381.65	4.136
381.86	4.497
382.06	5.863
382.27	3.144
382.47	3.622
382.68	5.416
382.88	3.908
383.09	4.182
383.29	4.553
383.50	4.833
383.71	4.294
383.91	4.374
384.12	4.326
384.32	4.845
384.53	4.815
384.73	4.197
384.94	4.056
385.14	4.161
385.35	3.802
385.55	4.528
385.76	4.449
385.96	3.847
386.17	4.059
386.37	4.692
386.58	4.624
386.78	4.195
386.99	3.892
387.19	4.539
387.40	3.326
387.60	5.554
387.81	4.814
388.01	4.615
388.22	5.400
388.42	5.831
388.63	5.418
388.83	6.111
389.04	4.998
389.24	5.041
389.45	4.912
389.65	4.242
389.86	4.500
390.06	3.738
390.27	4.474
390.47	4.915
390.68	4.444
390.88	5.662
391.09	6.129
391.29	6.023
391.50	5.129
391.70	5.783
391.91	4.926
392.11	5.201
392.32	5.221
392.52	5.394
392.73	4.894
392.93	6.038
393.14	5.483
393.34	5.212
393.55	5.677
393.75	5.774
393.95	5.137
394.16	6.128
394.36	6.315
394.57	6.312
394.77	5.676
394.98	5.270
395.18	5.661
395.39	5.398
395.59	6.281
395.80	6.033
396.00	5.739
396.21	6.649
396.41	5.155
396.61	6.332
396.82	6.549
397.02	7.977
397.23	6.633
397.43	5.720
397.64	5.580
397.84	7.933
398.05	5.350
398.25	7.645
398.45	6.317
398.66	7.512
398.86	6.430
399.07	7.044
399.27	5.796
399.48	8.466
399.68	6.485
399.89	6.772
400.09	6.798
400.29	6.447
400.50	6.565
400.70	6.638
400.91	6.146
401.11	7.346
401.32	7.012
401.52	5.424
401.72	5.780
401.93	7.799
402.13	7.018
402.34	6.408
402.54	6.668
402.75	8.184
402.95	6.232
403.15	7.641
403.36	5.462
403.56	7.504
403.77	5.595
403.97	7.315
404.17	6.201
404.38	7.689
404.58	6.637
404.79	7.427
404.99	7.087
405.19	6.163
405.40	7.058
405.60	7.452
405.81	6.728
406.01	6.653
406.21	6.630
406.42	7.118
406.62	7.167
406.83	7.680
407.03	7.373
407.23	6.175
407.44	5.935
407.64	7.323
407.85	7.384
408.05	7.740
408.25	6.770
408.46	8.284
408.66	7.052
408.87	6.426
409.07	6.915
409.27	6.544
409.48	7.165
409.68	7.778
409.88	5.757
410.09	7.528
410.29	7.639
410.50	8.755
410.70	5.980
410.90	6.931
411.11	6.285
411.31	6.647
411.51	7.688
411.72	7.820
411.92	5.992
412.12	6.247
412.33	5.809
412.53	6.210
412.74	5.919
412.94	6.223
413.14	6.621
413.35	6.511
413.55	6.382
413.75	7.461
413.96	5.842
414.16	6.752
414.36	7.040
414.57	6.826
414.77	5.957
414.97	7.324
415.18	5.867
415.38	6.310
415.58	6.402
415.79	6.560
415.99	6.242
416.19	7.044
416.40	6.829
416.60	6.518
416.80	6.844
417.01	7.360
417.21	6.195
417.41	6.802
417.62	6.868
417.82	6.862
418.02	5.871
418.23	6.984
418.43	6.067
418.63	6.968
418.84	7.228
419.04	6.278
419.24	7.258
419.45	6.671
419.65	7.173
419.85	6.986
420.06	6.879
420.26	6.997
420.46	6.628
420.67	7.188
420.87	6.924
421.07	7.170
421.28	6.582
421.48	7.287
421.68	6.996
421.88	7.450
422.09	6.894
422.29	6.874
422.49	6.470
422.70	7.269
422.90	6.523
423.10	6.849
423.31	6.912
423.51	7.306
423.71	6.396
423.91	7.253
424.12	7.070
424.32	7.070
424.52	7.009
424.73	6.784
424.93	6.688
425.13	6.873
425.33	6.494
425.54	7.179
425.74	6.931
425.94	7.410
426.15	6.931
426.35	6.565
426.55	7.285
426.75	7.212
426.96	6.911
427.16	6.707
427.36	6.548
427.57	7.296
427.77	6.514
427.97	6.966
428.17	6.950
428.38	6.897
428.58	5.776
428.78	6.930
428.98	6.473
429.19	6.083
429.39	5.741
429.59	6.846
429.79	5.615
430.00	6.541
430.20	5.974
430.40	6.600
430.60	6.413
430.81	7.029
431.01	6.500
431.21	7.265
431.41	6.179
431.62	6.677
431.82	6.747
432.02	7.487
432.22	7.186
432.43	6.667
432.63	6.343
432.83	6.842
433.03	6.586
433.24	6.952
433.44	6.578
433.64	7.541
433.84	7.039
434.05	7.523
434.25	7.075
434.45	8.290
434.65	8.142
434.85	8.551
435.06	8.196
435.26	8.143
435.46	7.660
435.66	8.717
435.87	8.126
436.07	8.272
436.27	7.962
436.47	8.078
436.67	7.682
436.88	8.492
437.08	8.103
437.28	8.115
437.48	7.810
437.69	8.639
437.89	8.406
438.09	9.498
438.29	8.152
438.49	9.213
438.70	8.760
438.90	8.856
439.10	8.098
439.30	9.239
439.50	8.757
439.71	9.776
439.91	9.219
440.11	9.661
440.31	9.178
440.51	9.351
440.72	9.179
440.92	9.486
441.12	9.948
441.32	10.396
441.52	10.478
441.72	10.291
441.93	10.042
442.13	10.503
442.33	10.193
442.53	10.742
442.73	9.736
442.94	10.630
443.14	10.088
443.34	10.790
443.54	10.742
443.74	10.959
443.94	10.351
444.15	10.798
444.35	10.391
444.55	10.559
444.75	11.138
444.95	10.943
445.15	10.412
445.36	11.030
445.56	10.131
445.76	11.128
445.96	10.618
446.16	10.929
446.36	10.555
446.57	11.492
446.77	10.911
446.97	11.296
447.17	11.501
447.37	11.603
447.57	11.688
447.77	11.533
447.98	11.352
448.18	11.743
448.38	11.695
448.58	11.821
448.78	11.775
448.98	11.587
449.18	11.806
449.39	12.277
449.59	12.091
449.79	12.048
449.99	12.060
450.19	12.233
450.39	12.053
450.59	12.399
450.79	11.879
451.00	12.603
451.20	12.764
451.40	12.304
451.60	11.959
451.80	12.491
452.00	11.712
452.20	12.266
452.40	11.887
452.61	12.295
452.81	12.112
453.01	12.453
453.21	12.133
453.41	12.496
453.61	12.168
453.81	12.562
454.01	12.428
454.21	12.804
454.42	12.876
454.62	12.826
454.82	12.209
455.02	12.849
455.22	12.558
455.42	13.003
455.62	11.647
455.82	12.678
456.02	12.551
456.23	13.204
456.43	12.882
456.63	12.749
456.83	12.400
457.03	12.934
457.23	12.481
457.43	12.551
457.63	12.536
457.83	13.622
458.03	12.648
458.23	12.923
458.43	12.682
458.64	13.257
458.84	12.607
459.04	12.775
459.24	12.732
459.44	13.145
459.64	13.019
459.84	12.990
460.04	12.885
460.24	13.277
460.44	13.126
460.64	13.344
460.84	13.276
461.04	13.516
461.24	12.981
461.45	13.510
461.65	13.532
461.85	14.098
462.05	13.496
462.25	14.068
462.45	13.664
462.65	13.905
462.85	13.187
463.05	13.897
463.25	13.681
463.45	13.913
463.65	14.005
463.85	14.019
464.05	13.307
464.25	13.795
464.45	13.780
464.65	13.896
464.85	13.894
465.05	13.823
465.26	13.847
465.46	14.069
465.66	13.763
465.86	14.527
466.06	14.110
466.26	14.222
466.46	13.893
466.66	14.119
466.86	13.801
467.06	14.250
467.26	14.019
467.46	14.616
467.66	14.267
467.86	14.420
468.06	14.426
468.26	14.233
468.46	14.551
468.66	15.029
468.86	14.638
469.06	14.827
469.26	14.075
469.46	14.574
469.66	14.537
469.86	14.950
470.06	14.943
470.26	14.821
470.46	14.408
470.66	15.785
470.86	14.900
471.06	15.302
471.26	14.456
471.46	15.260
471.66	15.181
471.86	15.411
472.06	15.117
472.26	15.405
472.46	15.407
472.66	15.224
472.86	15.481
473.06	15.612
473.26	15.748
473.46	16.177
473.66	15.522
473.86	16.218
474.06	15.688
474.26	16.087
474.46	16.273
474.66	16.358
474.86	16.268
475.06	16.669
475.26	15.932
475.46	16.310
475.66	16.214
475.86	16.619
476.06	16.357
476.26	16.786
476.46	16.508
476.66	16.386
476.86	16.460
477.06	16.803
477.26	16.527
477.46	16.527
477.65	16.971
477.85	16.832
478.05	16.582
478.25	17.040
478.45	16.753
478.65	17.477
478.85	16.575
479.05	17.326
479.25	17.471
479.45	17.248
479.65	16.849
479.85	17.385
480.05	17.449
480.25	17.679
480.45	17.352
480.65	17.667
480.85	17.747
481.05	17.848
481.25	17.104
481.44	17.510
481.64	17.425
481.84	17.614
482.04	17.780
482.24	17.475
482.44	17.847
482.64	17.633
482.84	17.689
483.04	17.349
483.24	17.291
483.44	17.061
483.64	17.239
483.84	17.329
484.04	17.521
484.23	17.689
484.43	18.155
484.63	18.306
484.83	18.472
485.03	19.417
485.23	19.272
485.43	19.365
485.63	19.033
485.83	18.887
486.03	19.080
486.23	19.110
486.42	19.027
486.62	18.998
486.82	18.782
487.02	18.226
487.22	18.452
487.42	18.206
487.62	18.563
487.82	18.391
488.02	18.182
488.22	18.640
488.41	18.608
488.61	18.660
488.81	18.699
489.01	19.234
489.21	19.222
489.41	19.121
489.61	19.076
489.81	19.562
490.01	18.993
490.20	19.373
490.40	19.239
490.60	19.094
490.80	19.152
491.00	18.914
491.20	18.809
491.40	18.848
491.60	18.478
491.79	18.693
491.99	18.772
492.19	18.710
492.39	18.841
492.59	18.830
492.79	18.866
492.99	19.121
493.19	19.212
493.38	19.218
493.58	19.403
493.78	19.659
493.98	19.785
494.18	19.654
494.38	19.194
494.58	19.568
494.77	19.338
494.97	19.102
495.17	19.314
495.37	19.522
495.57	19.263
495.77	19.544
495.96	19.307
496.16	19.035
496.36	19.332
496.56	19.298
496.76	19.174
496.96	19.064
497.15	19.061
497.35	19.126
497.55	19.202
497.75	19.413
497.95	19.154
498.15	19.324
498.34	19.705
498.54	19.266
498.74	19.712
498.94	19.424
499.14	19.593
499.34	19.583
499.53	19.695
499.73	19.449
499.93	19.468
500.13	19.270
500.33	19.745
500.52	19.375
500.72	19.392
500.92	19.670
501.12	19.491
501.32	19.606
501.52	19.436
501.71	20.243
501.91	19.334
502.11	19.905
502.31	19.410
502.51	20.009
502.70	19.536
502.90	19.473
503.10	19.533
503.30	19.940
503.50	20.119
503.69	19.513
503.89	19.456
504.09	19.506
504.29	19.705
504.48	20.193
504.68	19.608
504.88	19.799
505.08	19.701
505.28	19.645
505.47	20.383
505.67	19.961
505.87	19.692
506.07	20.083
506.27	20.041
506.46	19.961
506.66	19.555
506.86	20.062
507.06	20.133
507.25	19.933
507.45	19.583
507.65	19.978
507.85	19.933
508.04	19.869
508.24	20.043
508.44	20.263
508.64	19.640
508.83	19.877
509.03	20.064
509.23	20.149
509.43	19.579
509.63	19.778
509.82	19.662
510.02	19.947
510.22	19.941
510.42	19.792
510.61	20.073
510.81	19.887
511.01	20.024
511.21	20.375
511.40	20.063
511.60	19.948
511.80	20.075
511.99	20.396
512.19	20.105
512.39	20.282
512.59	19.797
512.78	19.999
512.98	19.755
513.18	20.297
513.38	20.472
513.57	20.168
513.77	20.237
513.97	20.207
514.17	20.569
514.36	20.240
514.56	20.088
514.76	20.639
514.95	20.493
515.15	20.678
515.35	20.473
515.55	20.144
515.74	20.407
515.94	20.587
516.14	20.149
516.33	20.410
516.53	20.050
516.73	20.546
516.93	20.311
517.12	20.384
517.32	20.273
517.52	20.760
517.71	20.667
517.91	20.386
518.11	20.276
518.30	19.875
518.50	19.901
518.70	20.205
518.90	20.087
519.09	20.105
519.29	20.010
519.49	20.162
519.68	19.821
519.88	20.288
520.08	20.386
520.27	20.263
520.47	20.476
520.67	20.441
520.86	20.348
521.06	20.524
521.26	20.736
521.45	20.074
521.65	20.425
521.85	20.698
522.04	20.008
522.24	20.377
522.44	20.630
522.63	20.438
522.83	20.536
523.03	20.311
523.22	19.902
523.42	20.412
523.62	20.315
523.81	20.511
524.01	20.766
524.21	20.339
524.40	20.400
524.60	20.146
524.80	20.291
524.99	20.368
525.19	19.738
525.39	19.681
525.58	19.823
525.78	20.188
525.98	20.140
526.17	20.130
526.37	19.998
526.57	20.007
526.76	19.972
526.96	20.160
527.15	19.954
527.35	20.152
527.55	20.200
527.74	20.178
527.94	20.286
528.14	19.810
528.33	19.551
528.53	19.539
528.72	19.918
528.92	19.997
529.12	19.910
529.31	20.173
529.51	20.167
529.71	20.356
529.90	20.476
530.10	20.517
530.29	20.639
530.49	20.996
530.69	20.747
530.88	20.779
531.08	20.577
531.28	20.723
531.47	20.795
531.67	20.496
531.86	20.106
532.06	20.253
532.26	20.198
532.45	20.241
532.65	19.752
532.84	19.719
533.04	20.120
533.24	19.650
533.43	19.679
533.63	20.177
533.82	19.857
534.02	20.343
534.22	19.860
534.41	20.248
534.61	20.352
534.80	20.173
535.00	20.640
535.19	20.337
535.39	20.532
535.59	20.737
535.78	20.236
535.98	20.433
536.17	20.310
536.37	20.336
536.57	20.105
536.76	20.406
536.96	20.193
537.15	20.300
537.35	20.099
537.54	20.427
537.74	20.075
537.93	20.392
538.13	20.456
538.33	20.492
538.52	20.310
538.72	20.494
538.91	20.953
539.11	20.715
539.30	20.516
539.50	20.501
539.70	20.399
539.89	19.928
540.09	20.417
540.28	20.327
540.48	20.454
540.67	20.004
540.87	20.266
541.06	20.179
541.26	19.783
541.45	19.723
541.65	19.727
541.85	20.156
542.04	19.885
542.24	20.241
542.43	20.164
542.63	20.447
542.82	20.522
543.02	20.511
543.21	20.760
543.41	20.709
543.60	20.640
543.80	20.712
543.99	20.695
544.19	20.868
544.38	20.900
544.58	20.880
544.77	20.653
544.97	20.605
545.16	20.696
545.36	20.837
545.56	20.962
545.75	20.892
545.95	20.815
546.14	20.382
546.34	20.828
546.53	20.473
546.73	20.208
546.92	20.430
547.12	20.249
547.31	21.048
547.51	20.922
547.70	20.704
547.90	20.654
548.09	21.037
548.29	21.131
548.48	21.081
548.68	20.952
548.87	21.546
549.07	21.324
549.26	21.139
549.46	21.551
549.65	21.351
549.84	21.521
550.04	21.233
550.23	21.642
550.43	21.463
550.62	21.581
550.82	21.439
551.01	21.382
551.21	21.518
551.40	20.907
551.60	21.535
551.79	22.023
551.99	21.515
552.18	21.247
552.38	21.971
552.57	21.962
552.77	21.763
552.96	22.016
553.16	22.021
553.35	21.799
553.54	21.816
553.74	22.487
553.93	21.885
554.13	22.150
554.32	22.385
554.52	22.678
554.71	22.428
554.91	22.699
555.10	22.942
555.29	22.105
555.49	22.809
555.68	22.734
555.88	22.779
556.07	22.420
556.27	22.346
556.46	22.758
556.66	23.081
556.85	22.953
557.04	22.584
557.24	23.683
557.43	23.168
557.63	23.345
557.82	23.420
558.02	22.618
558.21	23.859
558.40	23.338
558.60	23.321
558.79	23.329
558.99	23.000
559.18	23.516
559.38	23.215
559.57	24.022
559.76	23.934
559.96	24.099
560.15	24.113
560.35	23.454
560.54	23.786
560.73	23.561
560.93	24.320
561.12	24.084
561.32	23.819
561.51	24.701
561.70	24.285
561.90	24.515
562.09	24.558
562.29	23.930
562.48	24.704
562.67	24.527
562.87	24.778
563.06	24.985
563.26	24.765
563.45	24.817
563.64	24.574
563.84	25.006
564.03	25.106
564.23	25.145
564.42	25.465
564.61	24.786
564.81	25.205
565.00	25.283
565.20	25.367
565.39	25.020
565.58	25.317
565.78	25.248
565.97	25.172
566.16	25.428
566.36	25.301
566.55	25.563
566.74	25.626
566.94	25.329
567.13	26.054
567.33	26.379
567.52	25.953
567.71	25.673
567.91	26.108
568.10	26.526
568.29	26.414
568.49	26.349
568.68	26.647
568.87	25.964
569.07	26.224
569.26	26.540
569.45	26.477
569.65	26.021
569.84	26.684
570.04	26.561
570.23	26.830
570.42	26.240
570.62	26.343
570.81	26.558
571.00	25.878
571.20	26.877
571.39	26.671
571.58	26.813
571.78	26.081
571.97	26.811
572.16	26.817
572.36	27.163
572.55	26.770
572.74	26.637
572.94	26.851
573.13	26.992
573.32	27.111
573.51	26.975
573.71	26.918
573.90	27.086
574.09	27.199
574.29	27.200
574.48	27.442
574.67	27.345
574.87	27.421
575.06	27.379
575.25	26.963
575.45	27.324
575.64	27.309
575.83	27.276
576.03	27.821
576.22	27.787
576.41	27.142
576.60	27.697
576.80	26.914
576.99	28.218
577.18	28.054
577.38	27.681
577.57	27.264
577.76	28.223
577.95	27.844
578.15	28.204
578.34	27.903
578.53	27.401
578.73	27.568
578.92	27.893
579.11	27.971
579.30	27.986
579.50	27.783
579.69	28.406
579.88	27.192
580.08	28.336
580.27	27.850
580.46	28.210
580.65	27.999
580.85	28.209
581.04	28.218
581.23	28.537
581.42	28.827
581.62	28.195
581.81	27.828
582.00	27.876
582.19	28.461
582.39	28.475
582.58	28.294
582.77	28.824
582.96	28.489
583.16	27.961
583.35	28.754
583.54	28.027
583.73	28.312
583.93	28.068
584.12	27.965
584.31	28.590
584.50	27.776
584.70	28.378
584.89	28.204
585.08	27.861
585.27	28.307
585.47	28.140
585.66	28.722
585.85	27.454
586.04	27.447
586.24	28.862
586.43	28.287
586.62	28.126
586.81	27.144
587.00	28.738
587.20	27.901
587.39	28.089
587.58	28.099
587.77	27.949
587.97	28.240
588.16	28.409
588.35	28.124
588.54	28.017
588.73	27.945
588.93	28.731
589.12	28.458
589.31	28.737
589.50	28.604
589.69	28.523
589.89	28.433
590.08	28.285
590.27	29.240
590.46	28.188
590.65	28.702
590.85	28.919
591.04	28.922
591.23	28.867
591.42	28.625
591.61	28.228
591.81	29.658
592.00	29.322
592.19	28.833
592.38	28.721
592.57	29.518
592.77	28.899
592.96	29.469
593.15	30.184
593.34	29.760
593.53	29.346
593.72	28.792
593.92	28.921
594.11	29.566
594.30	28.454
594.49	29.517
594.68	29.005
594.87	28.871
595.07	29.599
595.26	29.686
595.45	29.668
595.64	29.012
595.83	29.064
596.02	29.789
596.22	29.539
596.41	29.432
596.60	29.355
596.79	29.630
596.98	28.898
597.17	29.318
597.37	29.887
597.56	29.561
597.75	29.300
597.94	29.886
598.13	29.821
598.32	30.059
598.51	29.473
598.71	30.724
598.90	30.607
599.09	30.449
599.28	30.333
599.47	30.835
599.66	29.991
599.85	30.970
600.05	30.563
600.24	31.442
600.43	30.495
600.62	31.164
600.81	30.957
601.00	31.370
601.19	31.035
601.38	31.975
601.58	31.713
601.77	30.665
601.96	31.183
602.15	32.231
602.34	30.886
602.53	31.955
602.72	30.526
602.91	31.277
603.10	31.465
603.30	31.628
603.49	30.947
603.68	31.087
603.87	30.833
604.06	31.251
604.25	31.124
604.44	31.050
604.63	31.336
604.82	30.760
605.01	31.336
605.21	31.648
605.40	31.393
605.59	31.443
605.78	32.003
605.97	31.527
606.16	31.120
606.35	31.393
606.54	31.850
606.73	32.310
606.92	32.674
607.11	31.570
607.30	31.794
607.50	32.476
607.69	31.800
607.88	31.676
608.07	31.253
608.26	32.262
608.45	32.593
608.64	31.783
608.83	31.383
609.02	32.088
609.21	31.463
609.40	31.206
609.59	31.918
609.78	31.455
609.97	31.721
610.16	31.201
610.35	31.723
610.55	31.922
610.74	31.655
610.93	31.613
611.12	31.170
611.31	32.001
611.50	32.568
611.69	31.635
611.88	32.171
612.07	32.218
612.26	31.844
612.45	32.859
612.64	32.314
612.83	32.754
613.02	32.167
613.21	32.788
613.40	32.221
613.59	32.281
613.78	31.334
613.97	33.081
614.16	31.536
614.35	33.084
614.54	32.318
614.73	32.068
614.92	32.801
615.11	31.800
615.30	31.196
615.49	31.851
615.68	31.667
615.87	31.208
616.07	32.234
616.26	32.879
616.45	31.771
616.64	32.501
616.83	31.936
617.02	32.061
617.21	32.062
617.40	31.743
617.59	31.779
617.78	32.027
617.97	31.955
618.16	31.184
618.35	31.314
618.54	31.727
618.73	31.439
618.92	31.853
619.11	31.095
619.30	32.571
619.49	31.394
619.68	30.974
619.86	32.028
620.05	32.254
620.24	31.849
620.43	31.632
620.62	32.231
620.81	31.495
621.00	32.060
621.19	32.254
621.38	31.556
621.57	32.416
621.76	32.231
621.95	31.591
622.14	31.393
622.33	31.219
622.52	31.388
622.71	31.080
622.90	31.449
623.09	31.161
623.28	31.032
623.47	31.783
623.66	31.953
623.85	31.605
624.04	31.100
624.23	31.147
624.42	31.569
624.61	31.447
624.80	30.372
624.99	31.180
625.18	30.630
625.36	32.005
625.55	31.136
625.74	31.335
625.93	31.249
626.12	30.748
626.31	31.203
626.50	31.630
626.69	31.272
626.88	31.738
627.07	31.159
627.26	31.598
627.45	31.157
627.64	30.357
627.83	31.171
628.02	31.431
628.20	31.270
628.39	30.636
628.58	31.316
628.77	31.418
628.96	30.637
629.15	31.174
629.34	31.642
629.53	30.853
629.72	31.616
629.91	30.884
630.10	31.720
630.29	30.854
630.47	31.663
630.66	31.567
630.85	31.075
631.04	30.968
631.23	31.454
631.42	31.691
631.61	31.675
631.80	31.724
631.99	30.971
632.18	31.248
632.36	31.419
632.55	30.958
632.74	30.871
632.93	31.638
633.12	31.161
633.31	31.488
633.50	30.748
633.69	31.242
633.88	30.175
634.06	31.528
634.25	31.630
634.44	31.576
634.63	30.669
634.82	30.546
635.01	31.121
635.20	30.480
635.39	30.842
635.57	30.446
635.76	31.096
635.95	31.211
636.14	31.027
636.33	32.057
636.52	30.626
636.71	30.690
636.89	31.113
637.08	30.268
637.27	30.422
637.46	31.652
637.65	30.340
637.84	31.502
638.03	30.932
638.21	31.151
638.40	31.436
638.59	31.412
638.78	30.642
638.97	31.133
639.16	30.853
639.34	30.779
639.53	30.393
639.72	31.613
639.91	31.311
640.10	28.807
640.29	31.155
640.47	30.034
640.66	30.402
640.85	30.540
641.04	30.557
641.23	30.885
641.42	30.331
641.60	30.042
641.79	30.440
641.98	30.695
642.17	30.173
642.36	31.086
642.54	30.844
642.73	30.204
642.92	31.043
643.11	29.503
643.30	30.438
643.49	30.411
643.67	29.606
643.86	30.790
644.05	29.753
644.24	29.994
644.43	30.338
644.61	30.722
644.80	29.826
644.99	29.454
645.18	30.575
645.37	30.670
645.55	30.312
645.74	29.879
645.93	29.275
646.12	29.827
646.31	29.720
646.49	30.840
646.68	29.550
646.87	30.950
647.06	31.560
647.24	29.973
647.43	30.582
647.62	30.993
647.81	29.551
648.00	30.005
648.18	29.750
648.37	30.634
648.56	30.863
648.75	30.674
648.93	30.167
649.12	28.884
649.31	29.095
649.50	30.867
649.68	28.407
649.87	29.781
650.06	28.233
650.25	30.465
650.43	29.274
650.62	30.889
650.81	29.964
651.00	30.967
651.18	29.335
651.37	30.402
651.56	28.917
651.75	31.119
651.93	29.146
652.12	30.460
652.31	29.498
652.50	31.249
652.68	29.705
652.87	30.320
653.06	29.337
653.25	30.761
653.43	29.481
653.62	29.964
653.81	29.028
654.00	31.266
654.18	30.294
654.37	29.962
654.56	28.545
654.74	30.671
654.93	28.934
655.12	30.782
655.31	29.199
655.49	31.057
655.68	28.815
655.87	28.510
656.05	28.220
656.24	30.113
656.43	28.325
656.62	28.596
656.80	28.675
656.99	29.077
657.18	28.010
657.36	29.884
657.55	27.890
657.74	29.164
657.93	29.615
658.11	29.438
658.30	29.364
658.49	27.482
658.67	28.318
658.86	28.677
659.05	28.366
659.23	28.610
659.42	28.357
659.61	27.927
659.79	28.532
659.98	27.903
660.17	28.548
660.35	28.648
660.54	28.044
660.73	28.147
660.91	27.960
661.10	28.731
661.29	27.045
661.47	28.218
661.66	27.768
661.85	28.428
662.03	29.355
662.22	27.935
662.41	26.648
662.59	27.205
662.78	25.874
662.97	27.258
663.15	25.630
663.34	27.127
663.53	25.591
663.71	27.306
663.90	25.925
664.09	27.958
664.27	25.234
664.46	25.846
664.65	25.679
664.83	26.447
665.02	25.517
665.21	25.156
665.39	24.464
665.58	26.646
665.77	25.729
665.95	25.518
666.14	24.997
666.32	25.659
666.51	24.514
666.70	24.991
666.88	24.284
667.07	24.260
667.26	23.914
667.44	25.528
667.63	24.684
667.81	25.609
668.00	23.223
668.19	25.842
668.37	24.475
668.56	25.641
668.75	24.111
668.93	26.107
669.12	23.508
669.30	25.091
669.49	22.991
669.68	25.390
669.86	24.932
670.05	23.486
670.23	24.883
670.42	25.111
670.61	24.688
670.79	25.233
670.98	25.205
671.16	25.756
671.35	24.397
671.54	24.929
671.72	23.411
671.91	23.935
672.09	23.513
672.28	25.383
672.46	25.754
672.65	26.126
672.84	24.490
673.02	25.902
673.21	21.667
673.39	23.734
673.58	24.937
673.77	24.698
673.95	24.487
674.14	25.913
674.32	23.471
674.51	26.802
674.69	23.441
674.88	25.019
675.07	24.332
675.25	27.589
675.44	25.073
675.62	25.504
675.81	24.232
675.99	27.846
676.18	26.920
676.36	25.413
676.55	24.019
676.74	26.189
676.92	26.091
677.11	26.431
677.29	25.711
677.48	27.586
677.66	25.217
677.85	26.264
678.03	23.798
678.22	27.987
678.40	25.665
678.59	26.499
678.78	25.193
678.96	27.902
679.15	25.580
679.33	27.417
679.52	27.274
679.70	26.952
679.89	28.251
680.07	28.181
680.26	25.884
680.44	27.938
680.63	27.073
680.81	28.062
681.00	26.459
681.18	27.812
681.37	27.393
681.55	28.567
681.74	28.203
681.92	28.807
682.11	28.834
682.29	28.451
682.48	28.736
682.66	29.742
682.85	29.651
683.03	29.770
683.22	30.061
683.40	30.587
683.59	29.469
683.77	29.954
683.96	29.030
684.14	30.884
684.33	28.038
684.51	32.193
684.70	30.058
684.88	31.358
685.07	32.087
685.25	31.724
685.44	30.972
685.62	32.518
685.81	29.193
685.99	33.609
686.18	30.136
686.36	33.338
686.55	31.202
686.73	32.934
686.92	32.012
687.10	33.389
687.29	34.401
687.47	33.491
687.65	32.359
687.84	33.455
688.02	35.242
688.21	34.754
688.39	33.672
688.58	36.896
688.76	33.600
688.95	35.045
689.13	33.859
689.32	36.014
689.50	36.593
689.68	36.443
689.87	35.153
690.05	38.309
690.24	36.134
690.42	37.518
690.61	36.572
690.79	37.456
690.98	36.468
691.16	38.837
691.34	37.348
691.53	39.504
691.71	38.004
691.90	39.391
692.08	37.916
692.27	41.879
692.45	40.045
692.63	40.082
692.82	40.207
693.00	41.330
693.19	40.364
693.37	40.281
693.56	38.974
693.74	42.798
693.92	40.189
694.11	42.122
694.29	42.004
694.48	41.192
694.66	41.693
694.84	42.557
695.03	39.660
695.21	42.974
695.40	43.977
695.58	44.365
695.76	44.602
695.95	43.660
696.13	43.719
696.32	44.341
696.50	45.780
696.68	47.938
696.87	44.703
697.05	45.497
697.24	46.737
697.42	44.541
697.60	43.872
697.79	46.783
697.97	46.444
698.16	46.538
698.34	45.186
698.52	45.735
698.71	46.827
698.89	46.304
699.07	45.169
699.26	47.366
699.44	46.402
699.63	46.078
699.81	45.603
699.99	46.447
700.18	46.441
700.36	44.742
700.54	46.575
700.73	47.408
700.91	45.842
701.09	48.869
701.28	47.700
701.46	47.106
701.64	47.472
701.83	48.312
702.01	47.670
702.20	48.968
702.38	49.155
702.56	49.949
702.75	48.456
702.93	50.755
703.11	49.092
703.30	50.689
703.48	52.134
703.66	50.374
703.85	48.527
704.03	54.103
704.21	48.790
704.40	51.917
704.58	48.825
704.76	50.925
704.95	50.319
705.13	50.711
705.31	51.744
705.50	53.199
705.68	51.086
705.86	51.157
706.04	50.705
706.23	51.339
706.41	50.953
706.59	52.325
706.78	50.627
706.96	52.583
707.14	52.866
707.33	50.743
707.51	52.015
707.69	52.043
707.88	51.180
708.06	53.570
708.24	51.303
708.42	52.651
708.61	51.314
708.79	54.133
708.97	54.216
709.16	53.700
709.34	55.338
709.52	51.414
709.71	52.677
709.89	52.544
710.07	52.153
710.25	53.623
710.44	51.536
710.62	53.253
710.80	53.268
710.98	54.030
711.17	51.827
711.35	53.772
711.53	51.931
711.72	55.762
711.90	52.456
712.08	53.717
712.26	51.662
712.45	51.813
712.63	53.469
712.81	52.404
712.99	53.714
713.18	51.926
713.36	54.080
713.54	53.805
713.72	52.260
713.91	51.987
714.09	52.186
714.27	52.792
714.45	54.183
714.64	53.795
714.82	53.261
715.00	54.454
715.18	52.491
715.37	53.833
715.55	52.272
715.73	53.861
715.91	53.701
716.10	54.329
716.28	51.143
716.46	54.084
716.64	50.905
716.83	53.153
717.01	52.353
717.19	54.467
717.37	52.605
717.55	55.158
717.74	53.458
717.92	53.222
718.10	52.990
718.28	55.092
718.47	53.621
718.65	53.679
718.83	52.976
719.01	53.589
719.19	52.183
719.38	51.381
719.56	52.884
719.74	54.833
719.92	49.599
720.10	54.191
720.29	51.534
720.47	55.208
720.65	52.069
720.83	55.006
721.01	51.120
721.20	55.541
721.38	50.906
721.56	55.012
721.74	55.291
721.92	54.444
722.11	52.471
722.29	55.605
722.47	54.091
722.65	54.242
722.83	53.922
723.01	58.200
723.20	53.994
723.38	55.086
723.56	52.193
723.74	55.516
723.92	54.217
724.10	55.659
724.29	53.407
724.47	56.727
724.65	54.710
724.83	55.558
725.01	54.293
725.19	57.569
725.38	52.265
725.56	54.638
725.74	54.543
725.92	56.018
726.10	53.650
726.28	55.935
726.46	53.498
726.65	57.523
726.83	53.695
727.01	56.672
727.19	55.250
727.37	55.401
727.55	56.500
727.73	55.838
727.92	54.510
728.10	55.698
728.28	52.753
728.46	55.882
728.64	53.142
728.82	55.884
729.00	53.734
729.19	55.462
729.37	54.503
729.55	56.491
729.73	54.646
729.91	57.391
730.09	54.664
730.27	54.770
730.45	54.664
730.63	57.476
730.82	53.892
731.00	54.529
731.18	54.939
731.36	56.667
731.54	53.419
731.72	54.765
731.90	56.591
732.08	55.823
732.26	54.586
732.45	57.160
732.63	55.589
732.81	57.223
732.99	55.927
733.17	57.287
733.35	54.137
733.53	56.288
733.71	53.242
733.89	58.312
734.07	54.658
734.25	55.797
734.44	53.965
734.62	55.701
734.80	55.595
734.98	56.476
735.16	57.845
735.34	54.730
735.52	58.988
735.70	59.379
735.88	54.196
736.06	58.053
736.24	58.177
736.42	58.786
736.60	56.995
736.78	56.637
736.97	55.828
737.15	59.970
737.33	56.935
737.51	55.962
737.69	55.861
737.87	58.743
738.05	58.183
738.23	59.568
738.41	58.230
738.59	59.470
738.77	56.641
738.95	58.561
739.13	57.332
739.31	56.697
739.49	55.177
739.67	61.014
739.85	56.047
740.03	56.311
740.21	57.076
740.39	60.313
740.57	57.375
740.75	57.738
740.93	57.881
741.11	59.026
741.30	58.204
741.48	56.671
741.66	59.947
741.84	60.662
742.02	53.769
742.20	57.976
742.38	58.065
742.56	58.751
742.74	59.756
742.92	60.368
743.10	55.614
743.28	59.148
743.46	58.808
743.64	59.045
743.82	59.761
744.00	58.484
744.18	57.831
744.36	59.863
744.54	57.363
744.72	62.130
744.90	59.718
745.08	57.265
745.26	57.933
745.44	64.636
745.62	59.682
745.80	57.593
745.98	58.732
746.16	61.672
746.34	56.601
746.52	62.349
746.70	62.054
746.87	60.904
747.05	57.687
747.23	63.540
747.41	55.494
747.59	60.669
747.77	58.601
747.95	59.980
748.13	60.309
748.31	60.638
748.49	58.078
748.67	61.630
748.85	61.695
749.03	58.915
749.21	56.560
749.39	62.319
749.57	59.383
749.75	58.274
749.93	57.472
750.11	60.604
750.29	57.932
750.47	60.105
750.65	54.302
750.83	58.190
751.01	57.784
751.18	56.845
751.36	58.639
751.54	58.500
751.72	56.992
751.90	59.228
752.08	56.903
752.26	57.665
752.44	54.520
752.62	58.257
752.80	58.091
752.98	59.438
753.16	58.477
753.34	59.810
753.52	61.383
753.69	58.692
753.87	57.330
754.05	61.519
754.23	58.695
754.41	59.465
754.59	59.576
754.77	63.532
754.95	58.664
755.13	61.707
755.31	57.570
755.49	59.787
755.66	57.867
755.84	63.714
756.02	59.247
756.20	61.748
756.38	55.933
756.56	57.002
756.74	58.134
756.92	59.606
757.10	56.469
757.28	60.032
757.45	60.527
757.63	55.735
757.81	55.893
757.99	60.817
758.17	57.347
758.35	60.397
758.53	55.393
758.71	58.728
758.88	59.943
759.06	60.604
759.24	55.034
759.42	57.117
759.60	55.995
759.78	55.979
759.96	52.919
760.13	57.196
760.31	49.219
760.49	53.345
760.67	49.562
760.85	52.910
761.03	48.568
761.21	54.206
761.38	48.564
761.56	53.574
761.74	47.555
761.92	55.245
762.10	46.329
762.28	50.188
762.46	48.232
762.63	51.014
762.81	49.730
762.99	52.978
763.17	51.051
763.35	52.674
763.53	49.938
763.70	51.603
763.88	54.795
764.06	52.730
764.24	51.242
764.42	55.074
764.60	52.719
764.77	54.983
764.95	52.802
765.13	54.387
765.31	53.431
765.49	52.328
765.66	52.773
765.84	55.267
766.02	56.244
766.20	54.319
766.38	50.908
766.56	55.455
766.73	51.459
766.91	56.211
767.09	57.880
767.27	57.694
767.45	55.388
767.62	57.475
767.80	55.302
767.98	58.634
768.16	56.855
768.33	59.855
768.51	55.314
768.69	59.011
768.87	57.282
769.05	59.815
769.22	52.706
769.40	61.549
769.58	57.507
769.76	62.637
769.94	56.765
770.11	58.830
770.29	63.193
770.47	61.690
770.65	59.488
770.82	64.040
771.00	53.846
771.18	58.865
771.36	59.175
771.53	60.105
771.71	55.110
771.89	64.484
772.07	61.683
772.25	63.000
772.42	59.489
772.60	60.384
772.78	61.091
772.96	59.050
773.13	62.142
773.31	56.138
773.49	60.497
773.67	60.400
773.84	55.683
774.02	62.424
774.20	60.655
774.37	62.839
774.55	57.117
774.73	61.277
774.91	58.440
775.08	61.138
775.26	64.098
775.44	64.689
775.62	61.597
775.79	59.760
775.97	62.518
776.15	62.199
776.32	59.478
776.50	67.184
776.68	63.609
776.86	63.659
777.03	60.679
777.21	59.980
777.39	57.475
777.56	61.350
777.74	60.857
777.92	57.456
778.10	60.050
778.27	65.149
778.45	65.388
778.63	64.663
778.80	58.770
778.98	62.802
779.16	63.249
779.34	65.507
779.51	56.305
779.69	62.506
779.87	56.785
780.04	58.912
780.22	52.741
780.40	61.400
780.57	57.615
780.75	62.870
780.93	62.650
781.10	59.696
781.28	68.382
781.46	58.696
781.63	60.695
781.81	66.173
781.99	57.878
782.16	61.294
782.34	56.280
782.52	63.690
782.69	61.721
782.87	58.195
783.05	57.248
783.22	61.404
783.40	60.734
783.58	60.959
783.75	58.093
783.93	63.464
784.11	58.481
784.28	60.629
784.46	55.617
784.64	62.631
784.81	61.026
784.99	63.267
785.17	62.550
785.34	55.163
785.52	55.349
785.69	59.571
785.87	56.488
786.05	61.421
786.22	57.289
786.40	64.186
786.58	61.158
786.75	63.061
786.93	55.817
787.11	63.217
787.28	59.172
787.46	62.523
787.63	61.488
787.81	59.178
787.99	57.504
788.16	60.984
788.34	56.173
788.51	61.893
788.69	58.126
788.87	57.187
789.04	53.958
789.22	63.800
789.39	54.864
789.57	55.992
789.75	54.995
789.92	57.844
790.10	56.537
790.27	58.704
790.45	54.522
790.63	58.718
790.80	55.065
790.98	56.016
791.15	56.618
791.33	59.200
791.51	53.786
791.68	58.422
791.86	58.807
792.03	58.315
792.21	51.850
792.39	64.290
792.56	56.286
792.74	60.739
792.91	58.020
793.09	59.302
793.26	54.142
793.44	59.582
793.62	54.086
793.79	60.948
793.97	57.782
794.14	57.474
794.32	58.381
794.49	62.384
794.67	53.103
794.84	54.869
795.02	54.118
795.20	58.528
795.37	52.267
795.55	55.217
795.72	54.083
795.90	52.552
796.07	55.940
796.25	55.864
796.42	49.940
796.60	58.290
796.77	54.401
796.95	60.459
797.13	49.174
797.30	58.827
797.48	52.919
797.65	57.656
797.83	55.241
798.00	57.886
798.18	48.942
798.35	56.838
798.53	54.744
798.70	60.189
798.88	49.540
799.05	52.918
799.23	47.442
799.40	60.011
799.58	58.148
799.75	55.240
799.93	51.468
800.10	55.723
800.28	51.694
800.45	56.086
800.63	48.344
800.80	56.337
800.98	48.322
801.15	55.582
801.33	58.526
801.50	60.872
801.68	50.293
801.85	54.757
802.03	55.077
802.20	54.383
802.38	56.377
802.55	56.531
802.73	58.269
802.90	55.433
803.08	55.578
803.25	60.523
803.43	56.938
803.60	56.586
803.78	54.186
803.95	64.359
804.13	55.938
804.30	55.219
804.48	48.987
804.65	59.827
804.83	52.547
805.00	52.869
805.17	48.985
805.35	52.846
805.52	46.488
805.70	59.717
805.87	57.639
806.05	56.674
806.22	59.127
806.40	54.300
806.57	52.961
806.75	60.809
806.92	57.685
807.09	58.149
807.27	61.070
807.44	61.188
807.62	53.757
807.79	55.343
807.97	58.373
808.14	57.470
808.31	57.379
808.49	49.326
808.66	58.657
808.84	48.571
809.01	59.078
809.19	55.220
809.36	59.968
809.53	53.080
809.71	52.201
809.88	62.350
810.06	62.898
810.23	62.358
810.41	60.638
810.58	62.761
810.75	48.120
810.93	56.084
811.10	58.708
811.28	52.636
811.45	51.265
811.62	51.387
811.80	50.858
811.97	56.397
812.15	58.069
812.32	59.449
812.49	54.105
812.67	54.143
812.84	53.877
813.02	63.074
813.19	49.395
813.36	61.153
813.54	48.622
813.71	59.169
813.89	54.717
814.06	55.827
814.23	60.762
814.41	55.388
814.58	55.810
814.75	62.740
814.93	52.029
815.10	55.511
815.28	46.852
815.45	53.125
815.62	55.732
815.80	47.753
815.97	47.359
816.14	52.866
816.32	54.394
816.49	48.038
816.66	51.336
816.84	48.621
817.01	57.094
817.18	46.645
817.36	52.856
817.53	54.768
817.71	37.895
817.88	55.678
818.05	52.381
818.23	51.913
818.40	45.645
818.57	48.695
818.75	43.890
818.92	48.609
819.09	52.013
819.27	51.513
819.44	49.699
819.61	52.035
819.79	44.791
819.96	55.209
820.13	45.705
820.31	50.749
820.48	51.211
820.65	47.130
820.82	47.428
821.00	51.366
821.17	47.053
821.34	44.404
821.52	49.674
821.69	48.139
821.86	47.600
822.04	48.737
822.21	49.974
822.38	51.746
822.56	49.625
822.73	51.990
822.90	50.890
823.07	51.640
823.25	51.113
823.42	51.085
823.59	49.700
823.77	50.577
823.94	51.303
824.11	51.693
824.29	52.285
824.46	52.181
824.63	52.274
824.80	51.841
824.98	50.634
825.15	52.982
825.32	48.675
825.49	52.136
825.67	49.350
825.84	53.451
826.01	51.128
826.19	51.816
826.36	49.211
826.53	52.016
826.70	48.149
826.88	51.504
827.05	48.663
827.22	49.692
827.39	51.113
827.57	48.744
827.74	46.757
827.91	53.928
828.08	45.075
828.26	53.533
828.43	48.073
828.60	50.299
828.77	49.950
828.95	52.229
829.12	45.310
829.29	45.726
829.46	47.537
829.64	48.060
829.81	44.223
829.98	53.022
830.15	45.030
830.32	47.852
830.50	40.870
830.67	52.652
830.84	44.730
831.01	47.030
831.19	43.300
831.36	47.842
831.53	46.985
831.70	50.915
831.87	45.500
832.05	51.422
832.22	48.162
832.39	45.462
832.56	39.833
832.74	54.888
832.91	41.913
833.08	56.000
833.25	38.145
833.42	44.974
833.60	49.330
833.77	42.053
833.94	44.959
834.11	47.681
834.28	42.714
834.45	47.711
834.63	42.326
834.80	49.059
834.97	48.496
835.14	50.559
835.31	45.722
835.49	48.635
835.66	50.285
835.83	44.036
836.00	46.645
836.17	47.446
836.34	42.615
836.52	50.095
836.69	47.638
836.86	47.679
837.03	46.777
837.20	45.252
837.37	45.064
837.55	46.502
837.72	47.659
837.89	48.085
838.06	48.607
838.23	54.417
838.40	48.145
838.58	44.784
838.75	53.905
838.92	65.797
839.09	64.318
839.26	56.960
839.43	58.174
839.60	60.944
839.78	54.435
839.95	62.624
840.12	57.780
840.29	59.239
840.46	54.447
840.63	53.822
840.80	56.349
840.98	60.133
841.15	56.857
841.32	52.000
841.49	46.378
841.66	51.236
841.83	55.410
842.00	50.247
842.17	49.014
842.34	51.940
842.52	57.241
842.69	61.705
842.86	53.341
843.03	70.713
843.20	49.936
843.37	60.407
843.54	57.371
843.71	62.100
843.88	70.238
844.06	69.306
844.23	59.149
844.40	56.925
844.57	59.431
844.74	55.904
844.91	84.072
845.08	67.934
845.25	65.667
845.42	69.320
845.59	64.164
845.76	62.206
845.94	97.075
846.11	69.057
846.28	71.281
846.45	84.921
846.62	83.229
846.79	61.121
846.96	86.301
847.13	71.675
847.30	62.837
847.47	66.372
847.64	70.286
847.81	81.707
847.98	87.573
848.15	94.977
848.32	93.223
848.50	79.604
848.67	60.385
848.84	83.363
849.01	73.203
849.18	88.326
849.35	99.359
849.52	95.082
849.69	73.102
849.86	76.514
850.03	72.562
850.20	86.585
850.37	77.228
850.54	78.175
850.71	80.838
850.88	67.723
851.05	83.510
851.22	84.399
851.39	90.741
851.56	68.350
851.73	81.725
851.90	87.472
852.07	76.311
852.24	72.842
852.41	74.368
852.58	98.876
852.75	71.429
852.92	63.801
853.09	93.548
853.26	105.901
853.43	77.528
853.60	78.889
853.77	90.408
853.94	85.915
854.11	82.664
854.28	100.238
854.45	80.184
854.62	90.888
854.79	96.460
854.96	87.786
855.13	87.939
855.30	97.105
855.47	88.827
855.64	91.648
855.81	94.773
855.98	98.947
856.15	83.085
856.32	97.135
856.49	95.822
856.66	92.414
856.83	78.295
857.00	72.273
857.17	91.304
857.34	71.047
857.51	80.988
857.68	89.356
857.85	70.577
858.02	105.108
858.19	79.138
858.36	69.697
858.53	71.602
858.70	83.575
858.87	93.009
859.04	73.729
859.21	84.080
859.38	75.947
859.55	88.315
859.72	92.184
859.89	109.391
860.05	79.350
860.22	85.680
860.39	64.171
860.56	73.548
860.73	83.333
860.90	93.827
861.07	98.169
861.24	83.204
861.41	100.806
861.58	85.965
861.75	88.329
861.92	84.511
862.09	87.196
862.26	79.245
862.43	90.107
862.59	90.551
862.76	91.521
862.93	129.600
863.10	83.251
863.27	97.889
863.44	93.846
863.61	78.249
863.78	93.765
863.95	112.500
864.12	78.017
864.29	104.984
864.45	64.681
864.62	80.488
864.79	92.742
864.96	88.249
865.13	83.261
865.30	67.423
865.47	93.506
865.64	112.766
865.81	75.978
865.97	87.273
866.14	105.738
866.31	81.644
866.48	80.460
866.65	78.589
866.82	98.280
866.99	96.618
867.16	67.381
867.33	96.438
867.49	91.211
867.66	81.109
867.83	77.724
868.00	71.850
868.17	79.470
868.34	100.798
868.51	77.284
868.67	103.807
868.84	89.195
869.01	94.130
869.18	72.521
869.35	92.262
869.52	73.318
869.69	105.183
869.85	87.316
870.02	70.390
870.19	88.049
870.36	92.654
870.53	73.780
870.70	77.307
870.86	87.013
871.03	79.404
871.20	82.941
871.37	90.909
871.54	81.579
871.71	74.817
871.87	91.117
872.04	79.873
872.21	75.208
872.38	102.926
872.55	91.262
872.72	82.075
872.88	93.805
873.05	94.407
873.22	71.084
873.39	77.369
873.56	72.388
873.72	95.342
873.89	55.919
874.06	78.534
874.23	98.291
874.40	81.726
874.56	92.060
874.73	89.262
874.90	81.132
875.07	88.312
875.24	87.443
875.40	81.602
875.57	94.033
875.74	83.218
875.91	76.974
876.08	77.506
876.24	78.947
876.41	89.760
876.58	104.533
876.75	85.596
876.92	78.215
877.08	88.333
877.25	70.276
877.42	71.552
877.59	83.070
877.75	108.540
877.92	77.991
878.09	84.901
878.26	86.041
878.42	84.124
878.59	102.716
878.76	78.293
878.93	80.508
879.09	64.626
879.26	87.908
879.43	69.565
879.60	65.578
879.76	77.679
879.93	70.470
880.10	67.437
880.27	58.765
880.43	55.969
880.60	59.585
880.77	58.669
880.94	55.252
881.10	46.330
881.27	49.404
881.44	33.183
881.61	37.031
881.77	45.870
881.94	40.366
882.11	31.909
882.28	37.417
882.44	36.386
882.61	38.894
882.78	40.497
882.94	44.696
883.11	43.312
883.28	46.547
883.45	43.168
883.61	42.283
883.78	40.759
883.95	45.537
884.11	45.957
884.28	44.850
>>>>>End Processed Spectral Data<<<<<
